x               y
399.452262  	86.146611 
400.889141  	85.696900 
402.326019  	85.133824 
403.762898  	85.470981 
405.199776  	85.991348 
406.636655  	85.840803 
408.073534  	85.172744 
409.510412  	84.272018 
410.947291  	85.556526 
412.384170  	87.386168 
413.821048  	87.530384 
415.257927  	87.235479 
416.694806  	86.384191 
418.131684  	86.228832 
419.568563  	87.735235 
421.005441  	86.388158 
422.442320  	85.792384 
423.879199  	85.325026 
425.316077  	84.726913 
426.752956  	85.775316 
428.189835  	86.239325 
429.626713  	85.528003 
431.063592  	85.567640 
432.500471  	85.828133 
433.937349  	85.508359 
435.374228  	84.756680 
436.811106  	84.698802 
438.247985  	85.189323 
439.684864  	84.573147 
441.121742  	84.316513 
442.558621  	84.951451 
443.995500  	84.545540 
445.432378  	84.323287 
446.869257  	84.255946 
448.306136  	84.282964 
449.743014  	84.958990 
451.179893  	84.690339 
452.616772  	84.177074 
454.053650  	84.304907 
455.490529  	83.522773 
456.927407  	83.232113 
458.364286  	83.965718 
459.801165  	83.633787 
461.238043  	83.347756 
462.674922  	82.887375 
464.111801  	82.722593 
465.548679  	83.041851 
466.985558  	82.476705 
468.422437  	82.149634 
469.859315  	82.254066 
471.296194  	81.808852 
472.733072  	82.181808 
474.169951  	82.644582 
475.606830  	82.587547 
477.043708  	82.810962 
478.480587  	82.612318 
479.917466  	82.540314 
481.354344  	82.834111 
482.791223  	82.919444 
484.228102  	83.316833 
485.664980  	83.490280 
487.101859  	83.580001 
488.538738  	84.024433 
489.975616  	83.879429 
491.412495  	83.777519 
492.849373  	83.891278 
494.286252  	83.507229 
495.723131  	83.723326 
497.160009  	84.118054 
498.596888  	83.872329 
500.033767  	83.706265 
501.470645  	83.576171 
502.907524  	83.689121 
504.344403  	83.827018 
505.781281  	83.523427 
507.218160  	83.460937 
508.655038  	83.242955 
510.091917  	82.908719 
511.528796  	83.249563 
512.965674  	83.220199 
514.402553  	82.826205 
515.839432  	82.731114 
517.276310  	82.283872 
518.713189  	82.047258 
520.150068  	82.340696 
521.586946  	82.684647 
523.023825  	82.998749 
524.460704  	82.643949 
525.897582  	82.268979 
527.334461  	82.768366 
528.771339  	82.956969 
530.208218  	82.950397 
531.645097  	82.979539 
533.081975  	82.802178 
534.518854  	82.988116 
535.955733  	83.175590 
537.392611  	83.049604 
538.829490  	83.103735 
540.266369  	83.121318 
541.703247  	83.220857 
543.140126  	83.249696 
544.577004  	82.827933 
546.013883  	82.668489 
547.450762  	82.688096 
548.887640  	82.387437 
550.324519  	82.175661 
551.761398  	82.036976 
553.198276  	81.896549 
554.635155  	81.736745 
556.072034  	81.562925 
557.508912  	81.729935 
558.945791  	81.905344 
560.382670  	81.958137 
561.819548  	82.239284 
563.256427  	82.390190 
564.693305  	82.399946 
566.130184  	82.331247 
567.567063  	81.898776 
569.003941  	81.560841 
570.440820  	81.398642 
571.877699  	81.201607 
573.314577  	81.208774 
574.751456  	81.177738 
576.188335  	81.202443 
577.625213  	81.512508 
579.062092  	81.655588 
580.498970  	81.723419 
581.935849  	81.864161 
583.372728  	81.915933 
584.809606  	81.955822 
586.246485  	81.950886 
587.683364  	82.007097 
589.120242  	82.052423 
590.557121  	81.883069 
591.994000  	81.916415 
593.430878  	82.145357 
594.867757  	82.290444 
596.304636  	82.577764 
597.741514  	82.722386 
599.178393  	82.692290 
600.615271  	82.860809 
602.052150  	82.989465 
603.489029  	83.145282 
604.925907  	83.439993 
606.362786  	83.688592 
607.799665  	83.856876 
609.236543  	84.093216 
610.673422  	84.350434 
612.110301  	84.545970 
613.547179  	84.708048 
614.984058  	84.881425 
616.420936  	85.018898 
617.857815  	85.061373 
619.294694  	85.150906 
620.731572  	85.262887 
622.168451  	85.351469 
623.605330  	85.465701 
625.042208  	85.536437 
626.479087  	85.587789 
627.915966  	85.628103 
629.352844  	85.630311 
630.789723  	85.663435 
632.226602  	85.678193 
633.663480  	85.524869 
635.100359  	85.398617 
636.537237  	85.119798 
637.974116  	84.891963 
639.410995  	84.884741 
640.847873  	84.759673 
642.284752  	84.608911 
643.721631  	84.428058 
645.158509  	84.052178 
646.595388  	83.679399 
648.032267  	83.307304 
649.469145  	82.957337 
650.906024  	82.592373 
652.342902  	82.113314 
653.779781  	81.793825 
655.216660  	81.774406 
656.653538  	82.195988 
658.090417  	82.910615 
659.527296  	83.561544 
660.964174  	84.182847 
662.401053  	84.716001 
663.837932  	85.172432 
665.274810  	85.657848 
666.711689  	86.207458 
668.148568  	86.520145 
669.585446  	86.902792 
671.022325  	87.299715 
672.459203  	87.820354 
673.896082  	88.214262 
675.332961  	88.532622 
676.769839  	88.730404 
678.206718  	88.894419 
679.643597  	89.048921 
681.080475  	89.208627 
682.517354  	89.288857 
683.954233  	89.337430 
685.391111  	89.410635 
686.827990  	89.413126 
688.264868  	89.154351 
689.701747  	88.970311 
691.138626  	88.900591 
692.575504  	88.879845 
694.012383  	88.826075 
695.449262  	88.764601 
696.886140  	88.678102 
698.323019  	88.524439 
699.759898  	88.391645 
701.196776  	88.288961 
702.633655  	88.168133 
704.070533  	88.231346 
705.507412  	88.365540 
706.944291  	88.393060 
708.381169  	88.411316 
709.818048  	88.404810 
711.254927  	88.396135 
712.691805  	88.441712 
714.128684  	88.530513 
715.565563  	88.736135 
717.002441  	88.935028 
718.439320  	88.975148 
719.876199  	88.998301 
721.313077  	89.039533 
722.749956  	89.072460 
724.186834  	89.068552 
725.623713  	88.935872 
727.060592  	88.824522 
728.497470  	88.832019 
729.934349  	88.983693 
731.371228  	89.095708 
732.808106  	88.988238 
734.244985  	88.970708 
735.681864  	88.946658 
737.118742  	88.912799 
738.555621  	89.055431 
739.992499  	89.286296 
741.429378  	89.387601 
742.866257  	89.303146 
744.303135  	88.963716 
745.740014  	88.678720 
747.176893  	88.603627 
748.613771  	88.532920 
750.050650  	88.578885 
751.487529  	88.684762 
752.924407  	88.736105 
754.361286  	88.972098 
755.798165  	89.265020 
757.235043  	89.446633 
758.671922  	89.629746 
760.108800  	89.760648 
761.545679  	89.839107 
762.982558  	89.787019 
764.419436  	89.492418 
765.856315  	89.091110 
767.293194  	88.511754 
768.730072  	87.717599 
770.166951  	86.967376 
771.603830  	86.368526 
773.040708  	86.027490 
774.477587  	86.039146 
775.914465  	86.314499 
777.351344  	86.812786 
778.788223  	87.401307 
780.225101  	88.040564 
781.661980  	88.745212 
783.098859  	89.310187 
784.535737  	89.786582 
785.972616  	90.211193 
787.409495  	90.432788 
788.846373  	90.618921 
790.283252  	90.856505 
791.720131  	91.059249 
793.157009  	91.229973 
794.593888  	91.289467 
796.030766  	91.272309 
797.467645  	91.204056 
798.904524  	91.003849 
800.341402  	90.743587 
801.778281  	90.347618 
803.215160  	89.699723 
804.652038  	88.894740 
806.088917  	87.929486 
807.525796  	86.793455 
808.962674  	85.458500 
810.399553  	83.823181 
811.836431  	82.194448 
813.273310  	81.042370 
814.710189  	80.569998 
816.147067  	80.959625 
817.583946  	82.065433 
819.020825  	83.439290 
820.457703  	84.701695 
821.894582  	85.544944 
823.331461  	85.882257 
824.768339  	85.581222 
826.205218  	84.659894 
827.642097  	83.614716 
829.078975  	82.870658 
830.515854  	82.613661 
831.952732  	82.943175 
833.389611  	83.690795 
834.826490  	84.667494 
836.263368  	85.672881 
837.700247  	86.560906 
839.137126  	87.397576 
840.574004  	88.105758 
842.010883  	88.699823 
843.447762  	89.259407 
844.884640  	89.642455 
846.321519  	89.897869 
847.758397  	90.069267 
849.195276  	90.067827 
850.632155  	90.024521 
852.069033  	89.987441 
853.505912  	89.948112 
854.942791  	89.981882 
856.379669  	89.996827 
857.816548  	89.999881 
859.253427  	90.052949 
860.690305  	90.057190 
862.127184  	90.031029 
863.564063  	89.981686 
865.000941  	89.889852 
866.437820  	89.865165 
867.874698  	89.877625 
869.311577  	89.851224 
870.748456  	89.799150 
872.185334  	89.680760 
873.622213  	89.490704 
875.059092  	89.262506 
876.495970  	89.048566 
877.932849  	88.900659 
879.369728  	88.792602 
880.806606  	88.753428 
882.243485  	88.789964 
883.680363  	88.852288 
885.117242  	88.983295 
886.554121  	89.093834 
887.990999  	89.093679 
889.427878  	89.088397 
890.864757  	89.070218 
892.301635  	89.021684 
893.738514  	88.999486 
895.175393  	88.944148 
896.612271  	88.836025 
898.049150  	88.675716 
899.486029  	88.408386 
900.922907  	88.037825 
902.359786  	87.619489 
903.796664  	87.304012 
905.233543  	87.177891 
906.670422  	87.119843 
908.107300  	87.075537 
909.544179  	87.029694 
910.981058  	86.951951 
912.417936  	86.869173 
913.854815  	86.675297 
915.291694  	86.358374 
916.728572  	86.044965 
918.165451  	85.603776 
919.602329  	84.937775 
921.039208  	84.178320 
922.476087  	83.407212 
923.912965  	82.710693 
925.349844  	82.078141 
926.786723  	81.409794 
928.223601  	80.766675 
929.660480  	80.125775 
931.097359  	79.445991 
932.534237  	78.821985 
933.971116  	78.212456 
935.407995  	77.610588 
936.844873  	77.098111 
938.281752  	76.726428 
939.718630  	76.594578 
941.155509  	76.610600 
942.592388  	76.690930 
944.029266  	76.904783 
945.466145  	77.147422 
946.903024  	77.382197 
948.339902  	77.638965 
949.776781  	77.855488 
951.213660  	78.076149 
952.650538  	78.314935 
954.087417  	78.590551 
955.524295  	78.932139 
956.961174  	79.234835 
958.398053  	79.533688 
959.834931  	79.862338 
961.271810  	80.175583 
962.708689  	80.553647 
964.145567  	80.900410 
965.582446  	81.121974 
967.019325  	81.312250 
968.456203  	81.413669 
969.893082  	81.424799 
971.329961  	81.425896 
972.766839  	81.418350 
974.203718  	81.524628 
975.640596  	81.720034 
977.077475  	81.826087 
978.514354  	81.855069 
979.951232  	81.806329 
981.388111  	81.663740 
982.824990  	81.465254 
984.261868  	81.217655 
985.698747  	81.030114 
987.135626  	80.935274 
988.572504  	80.846522 
990.009383  	80.796003 
991.446261  	80.757046 
992.883140  	80.668011 
994.320019  	80.511893 
995.756897  	80.220008 
997.193776  	79.807368 
998.630655  	79.260016 
1000.067533  	78.520064 
1001.504412  	77.684772 
1002.941291  	76.788722 
1004.378169  	75.814613 
1005.815048  	74.710432 
1007.251926  	73.213660 
1008.688805  	71.389298 
1010.125684  	69.730926 
1011.562562  	68.601868 
1012.999441  	68.112260 
1014.436320  	67.963437 
1015.873198  	67.963613 
1017.310077  	68.253652 
1018.746956  	68.657645 
1020.183834  	69.076090 
1021.620713  	69.541987 
1023.057592  	69.953033 
1024.494470  	70.456384 
1025.931349  	71.069841 
1027.368227  	71.685076 
1028.805106  	72.382530 
1030.241985  	73.001385 
1031.678863  	73.347394 
1033.115742  	73.282507 
1034.552621  	72.666800 
1035.989499  	71.820061 
1037.426378  	71.093460 
1038.863257  	70.559750 
1040.300135  	70.376993 
1041.737014  	70.442037 
1043.173892  	70.636050 
1044.610771  	71.004748 
1046.047650  	71.352247 
1047.484528  	71.667242 
1048.921407  	72.020075 
1050.358286  	72.276245 
1051.795164  	72.448579 
1053.232043  	72.523714 
1054.668922  	72.496231 
1056.105800  	72.497647 
1057.542679  	72.532549 
1058.979558  	72.646945 
1060.416436  	72.866541 
1061.853315  	73.138929 
1063.290193  	73.485739 
1064.727072  	73.756234 
1066.163951  	73.888232 
1067.600829  	73.989102 
1069.037708  	74.018177 
1070.474587  	74.027585 
1071.911465  	74.034233 
1073.348344  	73.999136 
1074.785223  	74.137561 
1076.222101  	74.535251 
1077.658980  	75.195876 
1079.095858  	76.117481 
1080.532737  	77.037750 
1081.969616  	77.877370 
1083.406494  	78.681139 
1084.843373  	79.386672 
1086.280252  	80.017074 
1087.717130  	80.590540 
1089.154009  	81.140631 
1090.590888  	81.666555 
1092.027766  	82.068721 
1093.464645  	82.313460 
1094.901524  	82.327484 
1096.338402  	82.079021 
1097.775281  	81.656820 
1099.212159  	81.072171 
1100.649038  	80.386027 
1102.085917  	79.679690 
1103.522795  	78.860815 
1104.959674  	77.960657 
1106.396553  	77.077179 
1107.833431  	76.185534 
1109.270310  	75.346512 
1110.707189  	74.468094 
1112.144067  	73.425564 
1113.580946  	72.306030 
1115.017824  	71.077843 
1116.454703  	69.942208 
1117.891582  	69.172595 
1119.328460  	68.528081 
1120.765339  	67.839278 
1122.202218  	66.971815 
1123.639096  	65.876455 
1125.075975  	64.849268 
1126.512854  	63.775155 
1127.949732  	62.560921 
1129.386611  	61.382777 
1130.823490  	60.057271 
1132.260368  	58.730777 
1133.697247  	57.524791 
1135.134125  	56.239404 
1136.571004  	55.167788 
1138.007883  	54.259304 
1139.444761  	53.376742 
1140.881640  	52.793393 
1142.318519  	52.259851 
1143.755397  	51.762574 
1145.192276  	51.372461 
1146.629155  	50.754969 
1148.066033  	50.085489 
1149.502912  	49.287283 
1150.939790  	48.237216 
1152.376669  	47.330617 
1153.813548  	46.384822 
1155.250426  	45.463119 
1156.687305  	44.811261 
1158.124184  	44.117513 
1159.561062  	43.644852 
1160.997941  	43.400167 
1162.434820  	43.144405 
1163.871698  	43.258610 
1165.308577  	43.536879 
1166.745456  	43.953324 
1168.182334  	44.764027 
1169.619213  	45.584364 
1171.056091  	46.558464 
1172.492970  	47.723281 
1173.929849  	48.801770 
1175.366727  	50.082590 
1176.803606  	51.382285 
1178.240485  	52.570792 
1179.677363  	53.891798 
1181.114242  	55.111166 
1182.551121  	56.339140 
1183.987999  	57.713181 
1185.424878  	59.019992 
1186.861756  	60.400774 
1188.298635  	61.772973 
1189.735514  	62.995722 
1191.172392  	64.182773 
1192.609271  	65.212060 
1194.046150  	66.119239 
1195.483028  	66.954765 
1196.919907  	67.636843 
1198.356786  	68.365187 
1199.793664  	69.137276 
1201.230543  	69.859387 
1202.667422  	70.648581 
1204.104300  	71.400745 
1205.541179  	72.040315 
1206.978057  	72.554721 
1208.414936  	72.802027 
1209.851815  	72.772070 
1211.288693  	72.432897 
1212.725572  	71.778368 
1214.162451  	70.945060 
1215.599329  	69.896915 
1217.036208  	68.736928 
1218.473087  	67.638965 
1219.909965  	66.547667 
1221.346844  	65.632130 
1222.783722  	64.855909 
1224.220601  	64.007350 
1225.657480  	63.205856 
1227.094358  	62.344487 
1228.531237  	61.432915 
1229.968116  	60.652675 
1231.404994  	59.904112 
1232.841873  	59.391859 
1234.278752  	59.147196 
1235.715630  	58.969947 
1237.152509  	59.009439 
1238.589388  	59.114698 
1240.026266  	59.246297 
1241.463145  	59.532701 
1242.900023  	59.760711 
1244.336902  	60.078469 
1245.773781  	60.507983 
1247.210659  	60.874292 
1248.647538  	61.445441 
1250.084417  	62.140132 
1251.521295  	62.926790 
1252.958174  	64.044189 
1254.395053  	65.275181 
1255.831931  	66.628276 
1257.268810  	68.111032 
1258.705688  	69.467041 
1260.142567  	70.823652 
1261.579446  	72.133062 
1263.016324  	73.217163 
1264.453203  	74.165287 
1265.890082  	74.902148 
1267.326960  	75.454385 
1268.763839  	75.915803 
1270.200718  	76.196254 
1271.637596  	76.436369 
1273.074475  	76.718741 
1274.511353  	76.931920 
1275.948232  	77.124357 
1277.385111  	77.248642 
1278.821989  	77.254438 
1280.258868  	77.195631 
1281.695747  	77.021629 
1283.132625  	76.754609 
1284.569504  	76.380637 
1286.006383  	75.795098 
1287.443261  	74.968956 
1288.880140  	73.832024 
1290.317019  	72.420897 
1291.753897  	70.802341 
1293.190776  	69.174675 
1294.627654  	68.033688 
1296.064533  	67.532102 
1297.501412  	67.783271 
1298.938290  	68.744358 
1300.375169  	69.939715 
1301.812048  	71.169394 
1303.248926  	72.406203 
1304.685805  	73.073783 
1306.122684  	73.995206 
1307.559562  	74.563763 
1308.996441  	75.177167 
1310.433319  	76.423297 
1311.870198  	76.605753 
1313.307077  	76.550007 
1314.743955  	76.435095 
1316.180834  	76.102409 
1317.617713  	75.670633 
1319.054591  	75.451551 
1320.491470  	75.633455 
1321.928349  	76.301227 
1323.365227  	77.320263 
1324.802106  	78.672528 
1326.238985  	80.242043 
1327.675863  	81.225487 
1329.112742  	82.571393 
1330.549620  	83.772653 
1331.986499  	84.721982 
1333.423378  	85.762544 
1334.860256  	86.002067 
1336.297135  	86.027039 
1337.734014  	85.844793 
1339.170892  	85.653925 
1340.607771  	85.814761 
1342.044650  	86.262815 
1343.481528  	86.588482 
1344.918407  	86.802492 
1346.355285  	87.066881 
1347.792164  	87.096366 
1349.229043  	87.064100 
1350.665921  	87.031243 
1352.102800  	86.998435 
1353.539679  	86.752147 
1354.976557  	86.516856 
1356.413436  	86.280456 
1357.850315  	86.046741 
1359.287193  	85.730684 
1360.724072  	85.298412 
1362.160951  	84.801876 
1363.597829  	84.420703 
1365.034708  	84.334297 
1366.471586  	84.309927 
1367.908465  	84.422655 
1369.345344  	84.613806 
1370.782222  	84.863272 
1372.219101  	85.040456 
1373.655980  	85.119993 
1375.092858  	85.232612 
1376.529737  	85.395985 
1377.966616  	85.539560 
1379.403494  	85.694831 
1380.840373  	85.936837 
1382.277251  	85.883446 
1383.714130  	85.696462 
1385.151009  	85.465861 
1386.587887  	85.182847 
1388.024766  	85.170373 
1389.461645  	85.514069 
1390.898523  	85.887127 
1392.335402  	86.350464 
1393.772281  	86.750375 
1395.209159  	87.066870 
1396.646038  	87.326845 
1398.082917  	87.407907 
1399.519795  	87.518982 
1400.956674  	87.702336 
1402.393552  	87.793863 
1403.830431  	87.670336 
1405.267310  	87.605972 
1406.704188  	87.601186 
1408.141067  	87.647526 
1409.577946  	87.764265 
1411.014824  	87.812433 
1412.451703  	87.913318 
1413.888582  	87.987800 
1415.325460  	87.959870 
1416.762339  	87.915025 
1418.199217  	87.897339 
1419.636096  	88.172322 
1421.072975  	88.431702 
1422.509853  	88.498405 
1423.946732  	88.705231 
1425.383611  	88.817958 
1426.820489  	88.730645 
1428.257368  	88.491255 
1429.694247  	87.859330 
1431.131125  	87.272747 
1432.568004  	86.668948 
1434.004883  	86.036026 
1435.441761  	85.522106 
1436.878640  	84.863238 
1438.315518  	84.424877 
1439.752397  	84.066015 
1441.189276  	83.579969 
1442.626154  	83.065312 
1444.063033  	82.486193 
1445.499912  	81.631498 
1446.936790  	80.945501 
1448.373669  	80.035798 
1449.810548  	79.395273 
1451.247426  	79.033499 
1452.684305  	78.738445 
1454.121183  	78.917179 
1455.558062  	79.037531 
1456.994941  	79.158474 
1458.431819  	80.125750 
1459.868698  	80.350937 
1461.305577  	80.884772 
1462.742455  	81.408596 
1464.179334  	81.867509 
1465.616213  	82.813659 
1467.053091  	83.528888 
1468.489970  	84.352450 
1469.926849  	85.294506 
1471.363727  	85.822138 
1472.800606  	86.621395 
1474.237484  	87.426035 
1475.674363  	87.706095 
1477.111242  	88.655914 
1478.548120  	89.537313 
1479.984999  	90.143998 
1481.421878  	90.889124 
1482.858756  	91.461448 
1484.295635  	91.958901 
1485.732514  	92.348634 
1487.169392  	92.438981 
1488.606271  	92.475860 
1490.043149  	92.099716 
1491.480028  	92.051176 
1492.916907  	92.250918 
1494.353785  	91.927728 
1495.790664  	91.279586 
1497.227543  	90.539522 
1498.664421  	89.321833 
1500.101300  	88.020087 
1501.538179  	86.653313 
1502.975057  	85.016586 
1504.411936  	83.684377 
1505.848815  	82.324225 
1507.285693  	77.812703 
1508.722572  	76.486170 
1510.159450  	76.045194 
1511.596329  	76.042532 
1513.033208  	77.199462 
1514.470086  	78.092588 
1515.906965  	78.887110 
1517.343844  	80.310684 
1518.780722  	80.775309 
1520.217601  	80.918124 
1521.654480  	80.970793 
1523.091358  	81.088982 
1524.528237  	81.139891 
1525.965115  	81.066537 
1527.401994  	81.352535 
1528.838873  	81.604817 
1530.275751  	81.755266 
1531.712630  	82.163752 
1533.149509  	82.494500 
1534.586387  	83.100882 
1536.023266  	83.667086 
1537.460145  	84.042385 
1538.897023  	84.500048 
1540.333902  	84.839329 
1541.770780  	85.619920 
1543.207659  	86.208211 
1544.644538  	86.462689 
1546.081416  	87.590016 
1547.518295  	88.422295 
1548.955174  	88.752962 
1550.392052  	89.283768 
1551.828931  	90.006131 
1553.265810  	90.597680 
1554.702688  	91.202549 
1556.139567  	91.696963 
1557.576446  	92.091902 
1559.013324  	91.266660 
1560.450203  	92.675090 
1561.887081  	93.521970 
1563.323960  	93.921248 
1564.760839  	94.215423 
1566.197717  	94.576597 
1567.634596  	94.841231 
1569.071475  	94.941881 
1570.508353  	95.189385 
1571.945232  	95.438104 
1573.382111  	95.508293 
1574.818989  	95.624357 
1576.255868  	95.250786 
1577.692746  	95.072920 
1579.129625  	95.275392 
1580.566504  	95.455218 
1582.003382  	95.540081 
1583.440261  	95.669016 
1584.877140  	95.850471 
1586.314018  	96.073141 
1587.750897  	96.298559 
1589.187776  	96.365053 
1590.624654  	96.394592 
1592.061533  	96.341111 
1593.498412  	96.204999 
1594.935290  	96.071095 
1596.372169  	95.948317 
1597.809047  	95.884562 
1599.245926  	95.804604 
1600.682805  	95.517387 
1602.119683  	95.162742 
1603.556562  	94.798402 
1604.993441  	94.446641 
1606.430319  	94.042737 
1607.867198  	93.454936 
1609.304077  	93.220986 
1610.740955  	93.318516 
1612.177834  	93.380153 
1613.614712  	93.667481 
1615.051591  	93.702194 
1616.488470  	93.708553 
1617.925348  	93.738532 
1619.362227  	93.433718 
1620.799106  	93.256322 
1622.235984  	93.179082 
1623.672863  	92.541937 
1625.109742  	91.963153 
1626.546620  	91.642065 
1627.983499  	91.187418 
1629.420378  	90.755677 
1630.857256  	90.262076 
1632.294135  	89.450410 
1633.731013  	88.953051 
1635.167892  	88.408863 
1636.604771  	87.563954 
1638.041649  	87.506890 
1639.478528  	87.757290 
1640.915407  	88.708250 
1642.352285  	89.912190 
1643.789164  	91.178179 
1645.226043  	92.236491 
1646.662921  	92.435577 
1648.099800  	92.956055 
1649.536678  	93.062202 
1650.973557  	93.220710 
1652.410436  	94.044356 
1653.847314  	92.443369 
1655.284193  	92.710646 
1656.721072  	93.039862 
1658.157950  	92.936159 
1659.594829  	92.990996 
1661.031708  	92.789342 
1662.468586  	92.495127 
1663.905465  	92.339528 
1665.342344  	91.974533 
1666.779222  	91.581478 
1668.216101  	91.207079 
1669.652979  	90.305497 
1671.089858  	89.740460 
1672.526737  	89.155083 
1673.963615  	88.520147 
1675.400494  	88.138595 
1676.837373  	87.114881 
1678.274251  	86.328253 
1679.711130  	85.237926 
1681.148009  	83.755835 
1682.584887  	83.437927 
1684.021766  	83.151327 
1685.458644  	79.778469 
1686.895523  	78.949770 
1688.332402  	77.227220 
1689.769280  	75.287953 
1691.206159  	73.975710 
1692.643038  	71.940296 
1694.079916  	70.186286 
1695.516795  	68.888972 
1696.953674  	65.129139 
1698.390552  	63.709076 
1699.827431  	62.389980 
1701.264310  	58.896358 
1702.701188  	57.459828 
1704.138067  	55.424000 
1705.574945  	53.571274 
1707.011824  	52.218302 
1708.448703  	50.134177 
1709.885581  	48.912914 
1711.322460  	47.733514 
1712.759339  	46.143494 
1714.196217  	45.647831 
1715.633096  	45.090347 
1717.069975  	44.336189 
1718.506853  	46.002862 
1719.943732  	46.699129 
1721.380610  	47.275029 
1722.817489  	48.644268 
1724.254368  	49.972932 
1725.691246  	51.667259 
1727.128125  	53.339416 
1728.565004  	54.691041 
1730.001882  	56.627803 
1731.438761  	58.440234 
1732.875640  	59.378361 
1734.312518  	62.404597 
1735.749397  	65.876088 
1737.186276  	67.545794 
1738.623154  	70.022862 
1740.060033  	73.549310 
1741.496911  	76.555565 
1742.933790  	79.339498 
1744.370669  	81.947317 
1745.807547  	84.537887 
1747.244426  	86.526553 
1748.681305  	87.789248 
1750.118183  	89.728219 
1751.555062  	90.821083 
1752.991941  	91.849527 
1754.428819  	93.511983 
1755.865698  	93.980317 
1757.302576  	94.503353 
1758.739455  	95.311792 
1760.176334  	95.706394 
1761.613212  	96.391427 
1763.050091  	96.990420 
1764.486970  	97.426548 
1765.923848  	98.110327 
1767.360727  	98.236547 
1768.797606  	98.410252 
1770.234484  	98.812843 
1771.671363  	98.832377 
1773.108242  	99.079478 
1774.545120  	99.217527 
1775.981999  	99.215999 
1777.418877  	99.520566 
1778.855756  	99.568836 
1780.292635  	99.617546 
1781.729513  	99.908666 
1783.166392  	99.986149 
1784.603271  	100.180987 
1786.040149  	100.338769 
1787.477028  	100.390172 
1788.913907  	100.605630 
1790.350785  	100.548139 
1791.787664  	100.456368 
1793.224542  	100.733043 
1794.661421  	100.571204 
1796.098300  	100.623222 
1797.535178  	100.801592 
1798.972057  	100.804643 
1800.408936  	100.952852 
1801.845814  	100.865880 
1803.282693  	100.902373 
1804.719572  	101.220063 
1806.156450  	101.213537 
1807.593329  	101.237926 
1809.030207  	101.339348 
1810.467086  	101.245689 
1811.903965  	101.384053 
1813.340843  	101.438660 
1814.777722  	101.454253 
1816.214601  	101.593756 
1817.651479  	101.481383 
1819.088358  	101.554271 
1820.525237  	101.738721 
1821.962115  	101.655980 
1823.398994  	101.775461 
1824.835873  	101.766257 
1826.272751  	101.645259 
1827.709630  	101.825969 
1829.146508  	101.725073 
1830.583387  	101.641481 
1832.020266  	101.807913 
1833.457144  	101.712070 
1834.894023  	101.859551 
1836.330902  	101.961384 
1837.767780  	101.886824 
1839.204659  	102.071023 
1840.641538  	102.080338 
1842.078416  	102.085974 
1843.515295  	102.255427 
1844.952173  	101.958839 
1846.389052  	101.989805 
1847.825931  	102.031751 
1849.262809  	101.929863 
1850.699688  	102.185374 
1852.136567  	102.202264 
1853.573445  	102.038720 
1855.010324  	102.235528 
1856.447203  	102.099280 
1857.884081  	102.237260 
1859.320960  	102.335208 
1860.757839  	102.044556 
1862.194717  	102.231789 
1863.631596  	102.236079 
1865.068474  	102.255898 
1866.505353  	102.478279 
1867.942232  	102.137854 
1869.379110  	101.939159 
1870.815989  	102.056647 
1872.252868  	101.968387 
1873.689746  	102.223728 
1875.126625  	102.254315 
1876.563504  	102.110728 
1878.000382  	102.278660 
1879.437261  	102.114418 
1880.874139  	102.204357 
1882.311018  	102.401404 
1883.747897  	102.183872 
1885.184775  	102.341716 
1886.621654  	102.297867 
1888.058533  	102.215151 
1889.495411  	102.422448 
1890.932290  	102.284384 
1892.369169  	102.278152 
1893.806047  	102.385096 
1895.242926  	102.148514 
1896.679805  	102.263020 
1898.116683  	102.375585 
1899.553562  	102.342386 
1900.990440  	102.508000 
1902.427319  	102.396509 
1903.864198  	102.447607 
1905.301076  	102.646276 
1906.737955  	102.477170 
1908.174834  	102.582845 
1909.611712  	102.646969 
1911.048591  	102.510606 
1912.485470  	102.701530 
1913.922348  	102.576482 
1915.359227  	102.480403 
1916.796105  	102.743004 
1918.232984  	102.541001 
1919.669863  	102.569237 
1921.106741  	102.657244 
1922.543620  	102.434172 
1923.980499  	102.726275 
1925.417377  	102.804868 
1926.854256  	102.797065 
1928.291135  	102.908732 
1929.728013  	102.873728 
1931.164892  	102.922046 
1932.601771  	103.100329 
1934.038649  	102.849690 
1935.475528  	103.128824 
1936.912406  	103.133079 
1938.349285  	103.063166 
1939.786164  	103.314038 
1941.223042  	103.099245 
1942.659921  	103.107067 
1944.096800  	103.321370 
1945.533678  	103.041264 
1946.970557  	103.272915 
1948.407436  	103.399466 
1949.844314  	103.103670 
1951.281193  	103.408044 
1952.718071  	103.300370 
1954.154950  	103.436504 
1955.591829  	103.662671 
1957.028707  	103.345081 
1958.465586  	103.688567 
1959.902465  	103.666575 
1961.339343  	103.324412 
1962.776222  	103.879602 
1964.213101  	103.830142 
1965.649979  	103.839572 
1967.086858  	104.134085 
1968.523737  	103.609942 
1969.960615  	103.853080 
1971.397494  	103.819243 
1972.834372  	103.474917 
1974.271251  	104.151276 
1975.708130  	103.908972 
1977.145008  	103.667306 
1978.581887  	103.901080 
1980.018766  	103.307091 
1981.455644  	103.476467 
1982.892523  	103.468172 
1984.329402  	103.072587 
1985.766280  	103.467100 
1987.203159  	103.206023 
1988.640037  	103.053363 
1990.076916  	103.486633 
1991.513795  	103.236954 
1992.950673  	103.369389 
1994.387552  	103.404961 
1995.824431  	103.093484 
1997.261309  	103.852261 
1998.698188  	103.776651 
2000.135067  	103.620351 
2001.571945  	104.271060 
2003.008824  	103.440495 
2004.445703  	103.431385 
2005.882581  	103.904056 
2007.319460  	103.378531 
2008.756338  	104.128666 
2010.193217  	103.876389 
2011.630096  	103.278442 
2013.066974  	104.035206 
2014.503853  	103.535456 
2015.940732  	103.724482 
2017.377610  	104.372663 
2018.814489  	103.590665 
2020.251368  	104.022246 
2021.688246  	103.710120 
2023.125125  	102.920606 
2024.562003  	103.542589 
2025.998882  	103.153705 
2027.435761  	103.474823 
2028.872639  	104.291071 
2030.309518  	103.454967 
2031.746397  	103.597277 
2033.183275  	103.582540 
2034.620154  	103.263273 
2036.057033  	103.789742 
2037.493911  	103.029631 
2038.930790  	102.950341 
2040.367669  	103.396438 
2041.804547  	102.609965 
2043.241426  	102.784741 
2044.678304  	102.769215 
2046.115183  	102.478046 
2047.552062  	103.200665 
2048.988940  	102.927425 
2050.425819  	102.744382 
2051.862698  	102.931520 
2053.299576  	102.372046 
2054.736455  	102.600830 
2056.173334  	102.847381 
2057.610212  	102.677536 
2059.047091  	103.053560 
2060.483969  	102.734193 
2061.920848  	102.637015 
2063.357727  	103.026549 
2064.794605  	102.532532 
2066.231484  	102.713127 
2067.668363  	103.098763 
2069.105241  	102.782308 
2070.542120  	103.004310 
2071.978999  	102.906857 
2073.415877  	102.786565 
2074.852756  	103.213528 
2076.289635  	102.936863 
2077.726513  	102.855849 
2079.163392  	103.087187 
2080.600270  	102.921926 
2082.037149  	103.116213 
2083.474028  	103.066521 
2084.910906  	102.849148 
2086.347785  	103.011671 
2087.784664  	102.817427 
2089.221542  	102.844381 
2090.658421  	103.040152 
2092.095300  	102.892529 
2093.532178  	103.185858 
2094.969057  	103.286132 
2096.405935  	103.125983 
2097.842814  	103.364700 
2099.279693  	103.243115 
2100.716571  	103.264583 
2102.153450  	103.438870 
2103.590329  	103.130083 
2105.027207  	103.217434 
2106.464086  	103.351117 
2107.900965  	103.247230 
2109.337843  	103.427845 
2110.774722  	103.402971 
2112.211600  	103.484600 
2113.648479  	103.540237 
2115.085358  	103.206974 
2116.522236  	103.405422 
2117.959115  	103.595123 
2119.395994  	103.482103 
2120.832872  	103.706931 
2122.269751  	103.644402 
2123.706630  	103.678313 
2125.143508  	103.938234 
2126.580387  	103.695205 
2128.017266  	103.801304 
2129.454144  	103.999017 
2130.891023  	103.908764 
2132.327901  	104.205646 
2133.764780  	104.048660 
2135.201659  	103.981245 
2136.638537  	104.467691 
2138.075416  	104.209461 
2139.512295  	104.176255 
2140.949173  	104.218328 
2142.386052  	103.938426 
2143.822931  	104.503962 
2145.259809  	104.559633 
2146.696688  	104.305544 
2148.133566  	104.696530 
2149.570445  	104.488144 
2151.007324  	104.748768 
2152.444202  	104.959358 
2153.881081  	104.455336 
2155.317960  	105.098580 
2156.754838  	105.062907 
2158.191717  	104.684851 
2159.628596  	105.344427 
2161.065474  	104.491193 
2162.502353  	104.522028 
2163.939232  	104.782618 
2165.376110  	103.828986 
2166.812989  	104.213435 
2168.249867  	104.310528 
2169.686746  	103.818814 
2171.123625  	104.189881 
2172.560503  	103.815705 
2173.997382  	103.712215 
2175.434261  	104.136686 
2176.871139  	103.729265 
2178.308018  	103.865811 
2179.744897  	103.792254 
2181.181775  	103.410309 
2182.618654  	103.763704 
2184.055532  	103.453924 
2185.492411  	103.496091 
2186.929290  	104.070954 
2188.366168  	103.765198 
2189.803047  	103.850493 
2191.239926  	103.896741 
2192.676804  	103.580589 
2194.113683  	103.799994 
2195.550562  	103.642219 
2196.987440  	103.647064 
2198.424319  	103.834046 
2199.861198  	103.429334 
2201.298076  	103.677706 
2202.734955  	103.863904 
2204.171833  	103.546861 
2205.608712  	103.760924 
2207.045591  	103.670302 
2208.482469  	103.692590 
2209.919348  	103.915862 
2211.356227  	103.482085 
2212.793105  	103.622171 
2214.229984  	103.763577 
2215.666863  	103.348224 
2217.103741  	103.530165 
2218.540620  	103.437126 
2219.977498  	103.245634 
2221.414377  	103.501059 
2222.851256  	103.328328 
2224.288134  	103.409917 
2225.725013  	103.498816 
2227.161892  	103.178185 
2228.598770  	103.328892 
2230.035649  	103.177135 
2231.472528  	102.979677 
2232.909406  	103.305400 
2234.346285  	103.114851 
2235.783164  	103.074145 
2237.220042  	103.275380 
2238.656921  	103.009454 
2240.093799  	103.110430 
2241.530678  	103.261831 
2242.967557  	103.207725 
2244.404435  	103.336533 
2245.841314  	103.134329 
2247.278193  	103.094687 
2248.715071  	103.259623 
2250.151950  	103.112596 
2251.588829  	103.208481 
2253.025707  	103.211435 
2254.462586  	103.089254 
2255.899464  	103.200037 
2257.336343  	103.182690 
2258.773222  	103.187488 
2260.210100  	103.262509 
2261.646979  	103.168106 
2263.083858  	103.250403 
2264.520736  	103.286447 
2265.957615  	103.172555 
2267.394494  	103.268113 
2268.831372  	103.277799 
2270.268251  	103.237578 
2271.705130  	103.312828 
2273.142008  	103.248509 
2274.578887  	103.213755 
2276.015765  	103.192782 
2277.452644  	103.151713 
2278.889523  	103.212289 
2280.326401  	103.140363 
2281.763280  	103.085381 
2283.200159  	103.144648 
2284.637037  	103.059174 
2286.073916  	103.006267 
2287.510795  	102.961614 
2288.947673  	102.886440 
2290.384552  	102.928519 
2291.821430  	102.890646 
2293.258309  	102.857992 
2294.695188  	102.687338 
2296.132066  	102.775090 
2297.568945  	102.732019 
2299.005824  	102.573919 
2300.442702  	102.602710 
2301.879581  	102.662448 
2303.316460  	102.677544 
2304.753338  	102.570279 
2306.190217  	102.568419 
2307.627096  	102.451247 
2309.063974  	102.422952 
2310.500853  	102.484272 
2311.937731  	102.389462 
2313.374610  	102.432089 
2314.811489  	102.484843 
2316.248367  	102.454542 
2317.685246  	102.482536 
2319.122125  	102.343110 
2320.559003  	102.233022 
2321.995882  	102.202107 
2323.432761  	102.053109 
2324.869639  	102.030464 
2326.306518  	102.023319 
2327.743396  	102.058968 
2329.180275  	102.188865 
2330.617154  	102.084250 
2332.054032  	102.151133 
2333.490911  	102.456620 
2334.927790  	102.515446 
2336.364668  	102.617713 
2337.801547  	102.675537 
2339.238426  	102.558370 
2340.675304  	102.535036 
2342.112183  	102.346444 
2343.549062  	102.171350 
2344.985940  	102.113064 
2346.422819  	101.889924 
2347.859697  	101.797146 
2349.296576  	101.819604 
2350.733455  	101.987301 
2352.170333  	102.380075 
2353.607212  	102.608641 
2355.044091  	102.729225 
2356.480969  	102.914995 
2357.917848  	102.829732 
2359.354727  	102.873875 
2360.791605  	102.905418 
2362.228484  	102.659668 
2363.665362  	102.719437 
2365.102241  	102.781681 
2366.539120  	102.744215 
2367.975998  	102.770090 
2369.412877  	102.556690 
2370.849756  	102.490977 
2372.286634  	102.556557 
2373.723513  	102.493148 
2375.160392  	102.502347 
2376.597270  	102.394575 
2378.034149  	102.325446 
2379.471027  	102.432266 
2380.907906  	102.392725 
2382.344785  	102.447345 
2383.781663  	102.668699 
2385.218542  	102.812071 
2386.655421  	103.000534 
2388.092299  	103.110396 
2389.529178  	103.137153 
2390.966057  	103.258413 
2392.402935  	103.313010 
2393.839814  	103.339925 
2395.276693  	103.413609 
2396.713571  	103.418822 
2398.150450  	103.451843 
2399.587328  	103.463794 
2401.024207  	103.458813 
2402.461086  	103.526119 
2403.897964  	103.513034 
2405.334843  	103.506504 
2406.771722  	103.516429 
2408.208600  	103.460133 
2409.645479  	103.517207 
2411.082358  	103.529296 
2412.519236  	103.471339 
2413.956115  	103.537592 
2415.392993  	103.553209 
2416.829872  	103.593048 
2418.266751  	103.658741 
2419.703629  	103.588787 
2421.140508  	103.604667 
2422.577387  	103.576987 
2424.014265  	103.477612 
2425.451144  	103.576086 
2426.888023  	103.611119 
2428.324901  	103.596304 
2429.761780  	103.639383 
2431.198659  	103.547008 
2432.635537  	103.563549 
2434.072416  	103.630033 
2435.509294  	103.571438 
2436.946173  	103.632259 
2438.383052  	103.641735 
2439.819930  	103.600996 
2441.256809  	103.663497 
2442.693688  	103.612643 
2444.130566  	103.619849 
2445.567445  	103.690846 
2447.004324  	103.639028 
2448.441202  	103.660876 
2449.878081  	103.635544 
2451.314959  	103.588091 
2452.751838  	103.670684 
2454.188717  	103.613463 
2455.625595  	103.568270 
2457.062474  	103.635375 
2458.499353  	103.602405 
2459.936231  	103.626663 
2461.373110  	103.642383 
2462.809989  	103.601858 
2464.246867  	103.647647 
2465.683746  	103.588053 
2467.120625  	103.526789 
2468.557503  	103.575193 
2469.994382  	103.571756 
2471.431260  	103.628219 
2472.868139  	103.643870 
2474.305018  	103.566448 
2475.741896  	103.588505 
2477.178775  	103.566924 
2478.615654  	103.556276 
2480.052532  	103.633184 
2481.489411  	103.620127 
2482.926290  	103.622852 
2484.363168  	103.619878 
2485.800047  	103.590289 
2487.236925  	103.650623 
2488.673804  	103.615589 
2490.110683  	103.554265 
2491.547561  	103.574852 
2492.984440  	103.542141 
2494.421319  	103.565301 
2495.858197  	103.576252 
2497.295076  	103.535351 
2498.731955  	103.589995 
2500.168833  	103.577363 
2501.605712  	103.570111 
2503.042591  	103.634119 
2504.479469  	103.590132 
2505.916348  	103.619832 
2507.353226  	103.679761 
2508.790105  	103.645462 
2510.226984  	103.683941 
2511.663862  	103.654484 
2513.100741  	103.598387 
2514.537620  	103.633372 
2515.974498  	103.581757 
2517.411377  	103.576213 
2518.848256  	103.609921 
2520.285134  	103.589727 
2521.722013  	103.668865 
2523.158891  	103.661446 
2524.595770  	103.598219 
2526.032649  	103.675536 
2527.469527  	103.687773 
2528.906406  	103.670716 
2530.343285  	103.654136 
2531.780163  	103.592976 
2533.217042  	103.639519 
2534.653921  	103.629888 
2536.090799  	103.586549 
2537.527678  	103.642291 
2538.964557  	103.582823 
2540.401435  	103.569269 
2541.838314  	103.653763 
2543.275192  	103.619456 
2544.712071  	103.623598 
2546.148950  	103.619158 
2547.585828  	103.587279 
2549.022707  	103.674829 
2550.459586  	103.695990 
2551.896464  	103.691049 
2553.333343  	103.677985 
2554.770222  	103.551345 
2556.207100  	103.570162 
2557.643979  	103.656354 
2559.080857  	103.643344 
2560.517736  	103.657675 
2561.954615  	103.603597 
2563.391493  	103.562078 
2564.828372  	103.588551 
2566.265251  	103.535167 
2567.702129  	103.544494 
2569.139008  	103.556604 
2570.575887  	103.518956 
2572.012765  	103.593977 
2573.449644  	103.601680 
2574.886523  	103.554290 
2576.323401  	103.552663 
2577.760280  	103.473787 
2579.197158  	103.469890 
2580.634037  	103.506655 
2582.070916  	103.459698 
2583.507794  	103.468037 
2584.944673  	103.442914 
2586.381552  	103.411180 
2587.818430  	103.439104 
2589.255309  	103.390895 
2590.692188  	103.400164 
2592.129066  	103.418807 
2593.565945  	103.335364 
2595.002823  	103.352848 
2596.439702  	103.366174 
2597.876581  	103.321752 
2599.313459  	103.349500 
2600.750338  	103.330539 
2602.187217  	103.324431 
2603.624095  	103.365500 
2605.060974  	103.340893 
2606.497853  	103.327764 
2607.934731  	103.291620 
2609.371610  	103.251607 
2610.808489  	103.284056 
2612.245367  	103.287587 
2613.682246  	103.314917 
2615.119124  	103.337775 
2616.556003  	103.286920 
2617.992882  	103.297224 
2619.429760  	103.289334 
2620.866639  	103.260023 
2622.303518  	103.308937 
2623.740396  	103.291760 
2625.177275  	103.273080 
2626.614154  	103.315212 
2628.051032  	103.300770 
2629.487911  	103.307261 
2630.924789  	103.313930 
2632.361668  	103.288300 
2633.798547  	103.304829 
2635.235425  	103.295283 
2636.672304  	103.297308 
2638.109183  	103.309767 
2639.546061  	103.271268 
2640.982940  	103.304390 
2642.419819  	103.338900 
2643.856697  	103.320922 
2645.293576  	103.362277 
2646.730454  	103.365208 
2648.167333  	103.351104 
2649.604212  	103.386043 
2651.041090  	103.374304 
2652.477969  	103.391031 
2653.914848  	103.423618 
2655.351726  	103.407683 
2656.788605  	103.441661 
2658.225484  	103.456366 
2659.662362  	103.437719 
2661.099241  	103.466975 
2662.536120  	103.463413 
2663.972998  	103.459792 
2665.409877  	103.487949 
2666.846755  	103.486977 
2668.283634  	103.495297 
2669.720513  	103.495437 
2671.157391  	103.511479 
2672.594270  	103.567920 
2674.031149  	103.566529 
2675.468027  	103.578013 
2676.904906  	103.623527 
2678.341785  	103.599198 
2679.778663  	103.584077 
2681.215542  	103.595160 
2682.652420  	103.593840 
2684.089299  	103.611089 
2685.526178  	103.610075 
2686.963056  	103.616019 
2688.399935  	103.621855 
2689.836814  	103.592277 
2691.273692  	103.608606 
2692.710571  	103.623360 
2694.147450  	103.604630 
2695.584328  	103.619404 
2697.021207  	103.610849 
2698.458086  	103.594086 
2699.894964  	103.592272 
2701.331843  	103.582457 
2702.768721  	103.624072 
2704.205600  	103.630697 
2705.642479  	103.584070 
2707.079357  	103.601131 
2708.516236  	103.596823 
2709.953115  	103.575112 
2711.389993  	103.594897 
2712.826872  	103.571413 
2714.263751  	103.561567 
2715.700629  	103.580085 
2717.137508  	103.560707 
2718.574386  	103.561704 
2720.011265  	103.572285 
2721.448144  	103.574583 
2722.885022  	103.570077 
2724.321901  	103.543899 
2725.758780  	103.569375 
2727.195658  	103.593440 
2728.632537  	103.562349 
2730.069416  	103.554178 
2731.506294  	103.529932 
2732.943173  	103.509800 
2734.380052  	103.514378 
2735.816930  	103.468886 
2737.253809  	103.474844 
2738.690687  	103.521930 
2740.127566  	103.502721 
2741.564445  	103.500177 
2743.001323  	103.499613 
2744.438202  	103.492216 
2745.875081  	103.526731 
2747.311959  	103.525225 
2748.748838  	103.528451 
2750.185717  	103.550629 
2751.622595  	103.524727 
2753.059474  	103.529510 
2754.496352  	103.541370 
2755.933231  	103.525791 
2757.370110  	103.531947 
2758.806988  	103.502351 
2760.243867  	103.484640 
2761.680746  	103.518011 
2763.117624  	103.516453 
2764.554503  	103.501403 
2765.991382  	103.482480 
2767.428260  	103.485203 
2768.865139  	103.528818 
2770.302018  	103.519140 
2771.738896  	103.504583 
2773.175775  	103.498899 
2774.612653  	103.446545 
2776.049532  	103.456897 
2777.486411  	103.474698 
2778.923289  	103.437701 
2780.360168  	103.460788 
2781.797047  	103.477000 
2783.233925  	103.468299 
2784.670804  	103.484510 
2786.107683  	103.443996 
2787.544561  	103.408201 
2788.981440  	103.406999 
2790.418318  	103.373316 
2791.855197  	103.358815 
2793.292076  	103.352636 
2794.728954  	103.338245 
2796.165833  	103.326047 
2797.602712  	103.290978 
2799.039590  	103.289196 
2800.476469  	103.280445 
2801.913348  	103.227227 
2803.350226  	103.207970 
2804.787105  	103.167863 
2806.223984  	103.121358 
2807.660862  	103.118081 
2809.097741  	103.072457 
2810.534619  	103.036221 
2811.971498  	103.017317 
2813.408377  	102.957219 
2814.845255  	102.937087 
2816.282134  	102.910308 
2817.719013  	102.844612 
2819.155891  	102.807975 
2820.592770  	102.753272 
2822.029649  	102.711096 
2823.466527  	102.683291 
2824.903406  	102.597036 
2826.340284  	102.517843 
2827.777163  	102.440887 
2829.214042  	102.345898 
2830.650920  	102.252594 
2832.087799  	102.093612 
2833.524678  	101.917236 
2834.961556  	101.736983 
2836.398435  	101.491198 
2837.835314  	101.251273 
2839.272192  	100.979431 
2840.709071  	100.648808 
2842.145950  	100.332665 
2843.582828  	99.958339 
2845.019707  	99.554440 
2846.456585  	99.196306 
2847.893464  	98.809703 
2849.330343  	98.396598 
2850.767221  	97.952094 
2852.204100  	97.472733 
2853.640979  	97.011360 
2855.077857  	96.486056 
2856.514736  	95.880747 
2857.951615  	95.293701 
2859.388493  	94.747527 
2860.825372  	94.282125 
2862.262250  	93.935353 
2863.699129  	93.702331 
2865.136008  	93.561078 
2866.572886  	93.461493 
2868.009765  	93.421679 
2869.446644  	93.446416 
2870.883522  	93.498549 
2872.320401  	93.628558 
2873.757280  	93.802869 
2875.194158  	93.962119 
2876.631037  	94.178261 
2878.067916  	94.416825 
2879.504794  	94.622565 
2880.941673  	94.824814 
2882.378551  	94.981938 
2883.815430  	95.098272 
2885.252309  	95.159731 
2886.689187  	95.097321 
2888.126066  	94.978329 
2889.562945  	94.849503 
2890.999823  	94.695585 
2892.436702  	94.524048 
2893.873581  	94.313222 
2895.310459  	94.098746 
2896.747338  	93.900591 
2898.184216  	93.682118 
2899.621095  	93.474540 
2901.057974  	93.277859 
2902.494852  	93.073707 
2903.931731  	92.876842 
2905.368610  	92.651718 
2906.805488  	92.398457 
2908.242367  	92.132314 
2909.679246  	91.835985 
2911.116124  	91.545979 
2912.553003  	91.266313 
2913.989882  	90.943041 
2915.426760  	90.564380 
2916.863639  	90.170946 
2918.300517  	89.781456 
2919.737396  	89.324470 
2921.174275  	88.801712 
2922.611153  	88.304554 
2924.048032  	87.803585 
2925.484911  	87.285369 
2926.921789  	86.813544 
2928.358668  	86.376389 
2929.795547  	85.981762 
2931.232425  	85.639545 
2932.669304  	85.281726 
2934.106182  	84.916737 
2935.543061  	84.588129 
2936.979940  	84.261969 
2938.416818  	83.949951 
2939.853697  	83.687418 
2941.290576  	83.453053 
2942.727454  	83.271760 
2944.164333  	83.158680 
2945.601212  	83.063384 
2947.038090  	83.022805 
2948.474969  	83.088644 
2949.911847  	83.224791 
2951.348726  	83.438151 
2952.785605  	83.760187 
2954.222483  	84.168686 
2955.659362  	84.652335 
2957.096241  	85.225535 
2958.533119  	85.856410 
2959.969998  	86.512179 
2961.406877  	87.227520 
2962.843755  	87.970456 
2964.280634  	88.688701 
2965.717513  	89.414466 
2967.154391  	90.127860 
2968.591270  	90.843433 
2970.028148  	91.587291 
2971.465027  	92.261934 
2972.901906  	92.877947 
2974.338784  	93.501909 
2975.775663  	94.097934 
2977.212542  	94.668495 
2978.649420  	95.229223 
2980.086299  	95.771631 
2981.523178  	96.272207 
2982.960056  	96.735496 
2984.396935  	97.221747 
2985.833813  	97.676005 
2987.270692  	98.067104 
2988.707571  	98.467498 
2990.144449  	98.843333 
2991.581328  	99.196776 
2993.018207  	99.507355 
2994.455085  	99.706231 
2995.891964  	99.941725 
2997.328843  	100.244304 
2998.765721  	100.490754 
3000.202600  	100.747959 
3001.639479  	101.017224 
3003.076357  	101.226044 
3004.513236  	101.412471 
3005.950114  	101.620761 
3007.386993  	101.870992 
3008.823872  	102.078072 
3010.260750  	102.190459 
3011.697629  	102.286952 
3013.134508  	102.380911 
3014.571386  	102.513218 
3016.008265  	102.666284 
3017.445144  	102.732049 
3018.882022  	102.776640 
3020.318901  	102.825287 
3021.755779  	102.872175 
3023.192658  	102.980803 
3024.629537  	103.036102 
3026.066415  	103.038530 
3027.503294  	103.103678 
3028.940173  	103.136188 
3030.377051  	103.115728 
3031.813930  	103.091808 
3033.250809  	103.090382 
3034.687687  	103.142431 
3036.124566  	103.141867 
3037.561445  	103.126902 
3038.998323  	103.185283 
3040.435202  	103.194339 
3041.872080  	103.186708 
3043.308959  	103.203709 
3044.745838  	103.194803 
3046.182716  	103.245284 
3047.619595  	103.275731 
3049.056474  	103.218285 
3050.493352  	103.198552 
3051.930231  	103.203313 
3053.367110  	103.239419 
3054.803988  	103.280674 
3056.240867  	103.226627 
3057.677745  	103.190634 
3059.114624  	103.197789 
3060.551503  	103.179216 
3061.988381  	103.192125 
3063.425260  	103.211249 
3064.862139  	103.224311 
3066.299017  	103.224951 
3067.735896  	103.200812 
3069.172775  	103.256744 
3070.609653  	103.339999 
3072.046532  	103.374467 
3073.483411  	103.391901 
3074.920289  	103.369923 
3076.357168  	103.413102 
3077.794046  	103.481831 
3079.230925  	103.422484 
3080.667804  	103.410441 
3082.104682  	103.453583 
3083.541561  	103.447212 
3084.978440  	103.505418 
3086.415318  	103.526497 
3087.852197  	103.493206 
3089.289076  	103.530171 
3090.725954  	103.528606 
3092.162833  	103.535663 
3093.599711  	103.576561 
3095.036590  	103.517277 
3096.473469  	103.477703 
3097.910347  	103.504286 
3099.347226  	103.499166 
3100.784105  	103.458857 
3102.220983  	103.391956 
3103.657862  	103.412255 
3105.094741  	103.492610 
3106.531619  	103.510095 
3107.968498  	103.549878 
3109.405377  	103.581529 
3110.842255  	103.571000 
3112.279134  	103.596799 
3113.716012  	103.595455 
3115.152891  	103.620977 
3116.589770  	103.678678 
3118.026648  	103.637157 
3119.463527  	103.619025 
3120.900406  	103.652098 
3122.337284  	103.658587 
3123.774163  	103.689997 
3125.211042  	103.672602 
3126.647920  	103.632887 
3128.084799  	103.662155 
3129.521677  	103.692964 
3130.958556  	103.727826 
3132.395435  	103.707829 
3133.832313  	103.629460 
3135.269192  	103.650084 
3136.706071  	103.682143 
3138.142949  	103.666751 
3139.579828  	103.674709 
3141.016707  	103.658292 
3142.453585  	103.661405 
3143.890464  	103.681113 
3145.327343  	103.644258 
3146.764221  	103.619223 
3148.201100  	103.622182 
3149.637978  	103.659056 
3151.074857  	103.682722 
3152.511736  	103.608809 
3153.948614  	103.575533 
3155.385493  	103.595404 
3156.822372  	103.583207 
3158.259250  	103.609120 
3159.696129  	103.587145 
3161.133008  	103.519807 
3162.569886  	103.539121 
3164.006765  	103.549149 
3165.443643  	103.540026 
3166.880522  	103.544595 
3168.317401  	103.501967 
3169.754279  	103.490540 
3171.191158  	103.512405 
3172.628037  	103.506336 
3174.064915  	103.486621 
3175.501794  	103.439218 
3176.938673  	103.405492 
3178.375551  	103.377382 
3179.812430  	103.362871 
3181.249309  	103.429357 
3182.686187  	103.449978 
3184.123066  	103.409202 
3185.559944  	103.393370 
3186.996823  	103.339389 
3188.433702  	103.343217 
3189.870580  	103.406968 
3191.307459  	103.397158 
3192.744338  	103.411198 
3194.181216  	103.410327 
3195.618095  	103.329964 
3197.054974  	103.286523 
3198.491852  	103.247235 
3199.928731  	103.231884 
3201.365609  	103.248008 
3202.802488  	103.211448 
3204.239367  	103.231343 
3205.676245  	103.286208 
3207.113124  	103.277510 
3208.550003  	103.251252 
3209.986881  	103.177098 
3211.423760  	103.157325 
3212.860639  	103.206607 
3214.297517  	103.138084 
3215.734396  	103.089141 
3217.171274  	103.135366 
3218.608153  	103.117025 
3220.045032  	103.066864 
3221.481910  	103.028822 
3222.918789  	103.037170 
3224.355668  	103.056630 
3225.792546  	102.974717 
3227.229425  	102.917737 
3228.666304  	102.911785 
3230.103182  	102.881748 
3231.540061  	102.914721 
3232.976940  	102.917109 
3234.413818  	102.863359 
3235.850697  	102.865075 
3237.287575  	102.853529 
3238.724454  	102.870977 
3240.161333  	102.895830 
3241.598211  	102.805416 
3243.035090  	102.712603 
3244.471969  	102.631855 
3245.908847  	102.582468 
3247.345726  	102.644439 
3248.782605  	102.657580 
3250.219483  	102.630425 
3251.656362  	102.612500 
3253.093240  	102.512137 
3254.530119  	102.461939 
3255.966998  	102.471585 
3257.403876  	102.427610 
3258.840755  	102.401933 
3260.277634  	102.350463 
3261.714512  	102.286578 
3263.151391  	102.288326 
3264.588270  	102.268486 
3266.025148  	102.248727 
3267.462027  	102.235156 
3268.898906  	102.193821 
3270.335784  	102.199768 
3271.772663  	102.180514 
3273.209541  	102.101238 
3274.646420  	102.046586 
3276.083299  	102.006532 
3277.520177  	102.009302 
3278.957056  	102.015079 
3280.393935  	101.978854 
3281.830813  	101.976275 
3283.267692  	101.938602 
3284.704571  	101.862672 
3286.141449  	101.857443 
3287.578328  	101.861636 
3289.015206  	101.835632 
3290.452085  	101.776689 
3291.888964  	101.705604 
3293.325842  	101.684713 
3294.762721  	101.651922 
3296.199600  	101.634847 
3297.636478  	101.648470 
3299.073357  	101.581075 
3300.510236  	101.563283 
3301.947114  	101.613831 
3303.383993  	101.564442 
3304.820872  	101.523852 
3306.257750  	101.515814 
3307.694629  	101.452149 
3309.131507  	101.405840 
3310.568386  	101.358355 
3312.005265  	101.309864 
3313.442143  	101.299770 
3314.879022  	101.268127 
3316.315901  	101.243837 
3317.752779  	101.235760 
3319.189658  	101.216470 
3320.626537  	101.201164 
3322.063415  	101.143651 
3323.500294  	101.089577 
3324.937172  	101.068506 
3326.374051  	101.008207 
3327.810930  	100.956962 
3329.247808  	100.911850 
3330.684687  	100.863982 
3332.121566  	100.869891 
3333.558444  	100.800337 
3334.995323  	100.643755 
3336.432202  	100.561327 
3337.869080  	100.538284 
3339.305959  	100.545521 
3340.742838  	100.557218 
3342.179716  	100.517419 
3343.616595  	100.497749 
3345.053473  	100.507953 
3346.490352  	100.479615 
3347.927231  	100.422495 
3349.364109  	100.367684 
3350.800988  	100.329232 
3352.237867  	100.294637 
3353.674745  	100.281314 
3355.111624  	100.246014 
3356.548503  	100.116580 
3357.985381  	100.071062 
3359.422260  	100.139806 
3360.859138  	100.077476 
3362.296017  	99.938405 
3363.732896  	99.877156 
3365.169774  	99.881171 
3366.606653  	99.927243 
3368.043532  	99.910216 
3369.480410  	99.880080 
3370.917289  	99.930514 
3372.354168  	99.927531 
3373.791046  	99.914921 
3375.227925  	99.953087 
3376.664804  	99.941093 
3378.101682  	99.961261 
3379.538561  	100.003933 
3380.975439  	99.988013 
3382.412318  	99.981232 
3383.849197  	99.945657 
3385.286075  	99.960767 
3386.722954  	100.120154 
3388.159833  	100.255520 
3389.596711  	100.379515 
3391.033590  	100.499809 
3392.470469  	100.508809 
3393.907347  	100.546633 
3395.344226  	100.650319 
3396.781104  	100.734529 
3398.217983  	100.870345 
3399.654862  	101.013011 
3401.091740  	101.110535 
3402.528619  	101.203298 
3403.965498  	101.267020 
3405.402376  	101.310973 
3406.839255  	101.389800 
3408.276134  	101.531802 
3409.713012  	101.665533 
3411.149891  	101.728011 
3412.586770  	101.796708 
3414.023648  	101.839360 
3415.460527  	101.841466 
3416.897405  	101.930925 
3418.334284  	102.021714 
3419.771163  	101.995336 
3421.208041  	101.923847 
3422.644920  	101.946534 
3424.081799  	102.130778 
3425.518677  	102.270981 
3426.955556  	102.275991 
3428.392435  	102.365694 
3429.829313  	102.482674 
3431.266192  	102.493656 
3432.703070  	102.501373 
3434.139949  	102.527151 
3435.576828  	102.592065 
3437.013706  	102.636292 
3438.450585  	102.584408 
3439.887464  	102.606666 
3441.324342  	102.629143 
3442.761221  	102.521177 
3444.198100  	102.539945 
3445.634978  	102.616677 
3447.071857  	102.505019 
3448.508736  	102.486917 
3449.945614  	102.716112 
3451.382493  	102.846909 
3452.819371  	102.785588 
3454.256250  	102.796966 
3455.693129  	102.941201 
3457.130007  	103.017545 
3458.566886  	103.023425 
3460.003765  	103.003500 
3461.440643  	102.955510 
3462.877522  	103.009282 
3464.314401  	103.101462 
3465.751279  	103.105798 
3467.188158  	103.145935 
3468.625036  	103.242627 
3470.061915  	103.317778 
3471.498794  	103.363114 
3472.935672  	103.357845 
3474.372551  	103.362450 
3475.809430  	103.431261 
3477.246308  	103.558070 
3478.683187  	103.665765 
3480.120066  	103.559496 
3481.556944  	103.307627 
3482.993823  	103.263643 
3484.430701  	103.449549 
3485.867580  	103.597840 
3487.304459  	103.586301 
3488.741337  	103.520363 
3490.178216  	103.566067 
3491.615095  	103.676368 
3493.051973  	103.773637 
3494.488852  	103.811367 
3495.925731  	103.773323 
3497.362609  	103.795399 
3498.799488  	103.876872 
3500.236367  	103.866975 
3501.673245  	103.709569 
3503.110124  	103.434648 
3504.547002  	103.390517 
3505.983881  	103.694831 
3507.420760  	103.840664 
3508.857638  	103.647760 
3510.294517  	103.464334 
3511.731396  	103.602328 
3513.168274  	103.815239 
3514.605153  	103.866503 
3516.042032  	103.931428 
3517.478910  	104.060315 
3518.915789  	104.067997 
3520.352667  	104.108012 
3521.789546  	104.095617 
3523.226425  	103.727073 
3524.663303  	103.521914 
3526.100182  	103.727991 
3527.537061  	103.743907 
3528.973939  	103.684728 
3530.410818  	103.796986 
3531.847697  	103.914453 
3533.284575  	104.154360 
3534.721454  	104.318810 
3536.158333  	104.124757 
3537.595211  	104.038697 
3539.032090  	104.349639 
3540.468968  	104.618191 
3541.905847  	104.719826 
3543.342726  	104.747651 
3544.779604  	104.577002 
3546.216483  	104.253725 
3547.653362  	104.206958 
3549.090240  	104.370828 
3550.527119  	104.497807 
3551.963998  	104.490185 
3553.400876  	104.249121 
3554.837755  	104.220317 
3556.274633  	104.523574 
3557.711512  	104.823408 
3559.148391  	104.973490 
3560.585269  	105.033900 
3562.022148  	105.083188 
3563.459027  	105.159659 
3564.895905  	105.194633 
3566.332784  	105.080249 
3567.769663  	104.602332 
3569.206541  	104.354282 
3570.643420  	104.424444 
3572.080299  	104.580592 
3573.517177  	104.701845 
3574.954056  	104.798154 
3576.390934  	104.854315 
3577.827813  	104.884269 
3579.264692  	104.934285 
3580.701570  	105.038945 
3582.138449  	105.224556 
3583.575328  	105.311234 
3585.012206  	105.322383 
3586.449085  	105.405286 
3587.885964  	105.104895 
3589.322842  	104.799221 
3590.759721  	104.876175 
3592.196599  	104.955039 
3593.633478  	104.988621 
3595.070357  	104.947681 
3596.507235  	104.862794 
3597.944114  	104.890031 
3599.380993  	104.995191 
3600.817871  	105.086328 
3602.254750  	105.249237 
3603.691629  	105.406673 
3605.128507  	105.484236 
3606.565386  	105.578070 
3608.002265  	105.637085 
3609.439143  	105.525749 
3610.876022  	105.402617 
3612.312900  	105.355853 
3613.749779  	105.107441 
3615.186658  	104.925429 
3616.623536  	105.171500 
3618.060415  	105.354170 
3619.497294  	105.006832 
3620.934172  	104.926879 
3622.371051  	105.372284 
3623.807930  	105.771255 
3625.244808  	105.826301 
3626.681687  	105.755657 
3628.118565  	106.092583 
3629.555444  	105.468554 
3630.992323  	104.856115 
3632.429201  	105.103549 
3633.866080  	105.211270 
3635.302959  	104.904374 
3636.739837  	104.956649 
3638.176716  	105.154021 
3639.613595  	105.325997 
3641.050473  	105.766614 
3642.487352  	106.102116 
3643.924231  	106.194777 
3645.361109  	106.516909 
3646.797988  	106.853161 
3648.234866  	106.651548 
3649.671745  	106.558489 
3651.108624  	106.001792 
3652.545502  	105.613131 
3653.982381  	105.723929 
3655.419260  	105.946633 
3656.856138  	105.749301 
3658.293017  	105.716816 
3659.729896  	105.885423 
3661.166774  	106.044087 
3662.603653  	106.294150 
3664.040531  	106.527923 
3665.477410  	106.578758 
3666.914289  	106.735403 
3668.351167  	107.083722 
3669.788046  	107.419194 
3671.224925  	107.014579 
3672.661803  	106.714112 
3674.098682  	106.770789 
3675.535561  	106.484364 
3676.972439  	105.795485 
3678.409318  	106.149738 
3679.846197  	106.306995 
3681.283075  	106.257870 
3682.719954  	106.421886 
3684.156832  	106.716261 
3685.593711  	106.833928 
3687.030590  	107.055064 
3688.467468  	107.373691 
3689.904347  	106.938321 
3691.341226  	106.709281 
3692.778104  	106.451624 
3694.214983  	106.261356 
3695.651862  	106.301270 
3697.088740  	106.318781 
3698.525619  	106.329649 
3699.962497  	106.562326 
3701.399376  	106.801756 
3702.836255  	106.842989 
3704.273133  	106.861944 
3705.710012  	106.911703 
3707.146891  	107.056304 
3708.583769  	107.343010 
3710.020648  	107.558370 
3711.457527  	107.245015 
3712.894405  	106.904313 
3714.331284  	106.718846 
3715.768163  	106.712231 
3717.205041  	106.975318 
3718.641920  	107.071227 
3720.078798  	106.890518 
3721.515677  	106.927900 
3722.952556  	106.923352 
3724.389434  	106.917627 
3725.826313  	107.252101 
3727.263192  	107.304693 
3728.700070  	107.018285 
3730.136949  	107.139726 
3731.573828  	107.540493 
3733.010706  	107.616631 
3734.447585  	107.475351 
3735.884463  	106.942562 
3737.321342  	106.421098 
3738.758221  	106.627274 
3740.195099  	106.804073 
3741.631978  	106.962406 
3743.068857  	107.453080 
3744.505735  	107.812216 
3745.942614  	106.940942 
3747.379493  	107.065406 
3748.816371  	107.504812 
3750.253250  	107.290257 
3751.690129  	106.650453 
3753.127007  	106.401436 
3754.563886  	106.477086 
3756.000764  	106.710108 
3757.437643  	106.786683 
3758.874522  	106.642861 
3760.311400  	106.667112 
3761.748279  	106.673395 
3763.185158  	106.796893 
3764.622036  	107.089319 
3766.058915  	106.961559 
3767.495794  	106.796835 
3768.932672  	106.946405 
3770.369551  	106.787684 
3771.806429  	106.757437 
3773.243308  	107.086040 
3774.680187  	107.256959 
3776.117065  	107.202400 
3777.553944  	107.228704 
3778.990823  	107.313152 
3780.427701  	107.124253 
3781.864580  	107.062392 
3783.301459  	107.243601 
3784.738337  	107.228156 
3786.175216  	106.925448 
3787.612094  	106.962511 
3789.048973  	107.212003 
3790.485852  	107.434122 
3791.922730  	107.563025 
3793.359609  	107.655356 
3794.796488  	107.839338 
3796.233366  	108.088022 
3797.670245  	107.891605 
3799.107124  	107.887675 
3800.544002  	108.345314 
3801.980881  	108.037937 
3803.417760  	107.145570 
3804.854638  	107.219765 
3806.291517  	107.669418 
3807.728395  	107.568273 
3809.165274  	107.301632 
3810.602153  	107.445018 
3812.039031  	107.629370 
3813.475910  	107.711442 
3814.912789  	108.016080 
3816.349667  	108.150307 
3817.786546  	107.880018 
3819.223425  	107.898988 
3820.660303  	108.121486 
3822.097182  	107.710751 
3823.534060  	107.290640 
3824.970939  	107.209511 
3826.407818  	107.362922 
3827.844696  	107.463121 
3829.281575  	107.606557 
3830.718454  	107.838375 
3832.155332  	107.886221 
3833.592211  	107.821504 
3835.029090  	107.980686 
3836.465968  	108.305595 
3837.902847  	108.335540 
3839.339726  	107.633693 
3840.776604  	107.188883 
3842.213483  	107.400569 
3843.650361  	107.463005 
3845.087240  	107.350440 
3846.524119  	107.508175 
3847.960997  	107.694014 
3849.397876  	107.670202 
3850.834755  	107.777826 
3852.271633  	108.288518 
3853.708512  	107.903929 
3855.145391  	107.284658 
3856.582269  	107.468166 
3858.019148  	107.424506 
3859.456026  	107.412222 
3860.892905  	107.569911 
3862.329784  	107.604777 
3863.766662  	107.525659 
3865.203541  	107.444971 
3866.640420  	107.388330 
3868.077298  	107.641880 
3869.514177  	107.755403 
3870.951056  	106.965880 
3872.387934  	107.107319 
3873.824813  	107.452946 
3875.261692  	107.437574 
3876.698570  	107.425325 
3878.135449  	107.521534 
3879.572327  	107.624385 
3881.009206  	107.307415 
3882.446085  	107.060188 
3883.882963  	107.229469 
3885.319842  	107.440150 
3886.756721  	106.933672 
3888.193599  	106.744145 
3889.630478  	107.139473 
3891.067357  	107.583364 
3892.504235  	107.241705 
3893.941114  	107.051244 
3895.377992  	107.368364 
3896.814871  	107.604521 
3898.251750  	107.667400 
3899.688628  	107.692005 
3901.125507  	107.596000 
3902.562386  	107.363930 
3903.999264  	106.843184 
3905.436143  	106.475405 
3906.873022  	106.833138 
3908.309900  	107.067901 
3909.746779  	107.058156 
3911.183658  	107.150227 
3912.620536  	107.247244 
3914.057415  	107.432263 
3915.494293  	107.568039 
3916.931172  	107.395927 
3918.368051  	107.223751 
3919.804929  	107.405773 
3921.241808  	107.471358 
3922.678687  	107.396885 
3924.115565  	107.335704 
3925.552444  	107.230200 
3926.989323  	107.296437 
3928.426201  	107.393482 
3929.863080  	107.389494 
3931.299958  	107.341481 
3932.736837  	107.215204 
3934.173716  	107.110801 
3935.610594  	107.254032 
3937.047473  	107.435163 
3938.484352  	107.470688 
3939.921230  	107.537019 
3941.358109  	107.664570 
3942.794988  	107.499411 
3944.231866  	107.319188 
3945.668745  	107.498012 
3947.105624  	107.501693 
3948.542502  	107.217658 
3949.979381  	107.125915 
3951.416259  	107.221057 
3952.853138  	107.357556 
3954.290017  	107.552946 
3955.726895  	107.599287 
3957.163774  	107.519900 
3958.600653  	107.511386 
3960.037531  	107.496383 
3961.474410  	107.362242 
3962.911289  	107.324080 
3964.348167  	107.489831 
3965.785046  	107.664788 
3967.221924  	107.640003 
3968.658803  	107.535244 
3970.095682  	107.530861 
3971.532560  	107.571931 
3972.969439  	107.587771 
3974.406318  	107.516623 
3975.843196  	107.410740 
3977.280075  	107.456580 
3978.716954  	107.603352 
3980.153832  	107.662174 
3981.590711  	107.639334 
3983.027590  	107.684714 
3984.464468  	107.776522 
3985.901347  	107.788017 
3987.338225  	107.806612 
3988.775104  	107.830011 
3990.211983  	107.724624 
3991.648861  	107.649048 
3993.085740  	107.680981 
3994.522619  	107.667958 
3995.959497  	107.678181 
3997.396376  	107.761240 
3998.833255  	107.826616 
4000.270133  	107.849209 