x               y
399.452262  	90.788916 
400.889141  	89.193265 
402.326019  	87.770150 
403.762898  	89.342814 
405.199776  	89.730413 
406.636655  	88.740996 
408.073534  	88.813215 
409.510412  	88.579151 
410.947291  	89.255166 
412.384170  	89.667440 
413.821048  	88.704098 
415.257927  	88.815637 
416.694806  	88.619628 
418.131684  	86.724770 
419.568563  	88.595012 
421.005441  	90.314095 
422.442320  	90.275462 
423.879199  	89.009583 
425.316077  	88.029137 
426.752956  	88.886587 
428.189835  	89.675680 
429.626713  	89.766063 
431.063592  	89.763808 
432.500471  	89.320557 
433.937349  	88.773707 
435.374228  	88.026703 
436.811106  	88.139038 
438.247985  	89.272678 
439.684864  	88.585350 
441.121742  	87.115080 
442.558621  	87.279998 
443.995500  	87.621367 
445.432378  	87.538764 
446.869257  	87.261779 
448.306136  	87.188796 
449.743014  	88.010636 
451.179893  	88.092254 
452.616772  	87.691514 
454.053650  	88.081058 
455.490529  	87.920717 
456.927407  	87.676667 
458.364286  	87.832727 
459.801165  	87.334253 
461.238043  	87.275515 
462.674922  	87.480879 
464.111801  	87.241099 
465.548679  	86.934142 
466.985558  	86.583814 
468.422437  	86.471872 
469.859315  	86.351214 
471.296194  	86.409231 
472.733072  	87.298090 
474.169951  	87.450960 
475.606830  	87.049549 
477.043708  	86.778033 
478.480587  	86.635456 
479.917466  	87.388702 
481.354344  	87.683997 
482.791223  	86.960834 
484.228102  	87.091477 
485.664980  	86.845792 
487.101859  	86.243156 
488.538738  	87.106274 
489.975616  	87.731834 
491.412495  	87.540938 
492.849373  	87.676852 
494.286252  	87.399844 
495.723131  	87.158866 
497.160009  	87.429726 
498.596888  	87.548482 
500.033767  	87.564974 
501.470645  	87.399844 
502.907524  	87.221448 
504.344403  	87.295732 
505.781281  	87.334148 
507.218160  	87.571464 
508.655038  	87.492644 
510.091917  	87.079419 
511.528796  	87.194227 
512.965674  	87.265927 
514.402553  	87.046601 
515.839432  	86.881507 
517.276310  	86.364427 
518.713189  	86.199733 
520.150068  	86.572373 
521.586946  	86.789678 
523.023825  	87.114785 
524.460704  	87.094497 
525.897582  	86.650642 
527.334461  	86.945001 
528.771339  	87.331188 
530.208218  	87.205300 
531.645097  	87.120000 
533.081975  	87.201484 
534.518854  	87.263643 
535.955733  	87.141754 
537.392611  	86.962096 
538.829490  	87.013614 
540.266369  	87.094041 
541.703247  	87.088524 
543.140126  	87.071062 
544.577004  	87.056374 
546.013883  	87.015390 
547.450762  	86.712874 
548.887640  	86.376298 
550.324519  	86.259461 
551.761398  	86.181612 
553.198276  	86.217435 
554.635155  	86.135177 
556.072034  	85.842404 
557.508912  	85.984348 
558.945791  	86.335715 
560.382670  	86.448517 
561.819548  	86.580180 
563.256427  	86.614047 
564.693305  	86.476857 
566.130184  	86.270347 
567.567063  	85.930970 
569.003941  	85.754173 
570.440820  	85.778935 
571.877699  	85.828923 
573.314577  	85.817134 
574.751456  	85.569639 
576.188335  	85.550448 
577.625213  	85.943463 
579.062092  	86.100680 
580.498970  	86.149517 
581.935849  	86.228493 
583.372728  	86.180096 
584.809606  	86.244403 
586.246485  	86.323371 
587.683364  	86.321521 
589.120242  	86.358486 
590.557121  	86.254216 
591.994000  	86.204350 
593.430878  	86.377247 
594.867757  	86.508808 
596.304636  	86.708305 
597.741514  	86.904644 
599.178393  	86.990624 
600.615271  	87.186720 
602.052150  	87.311921 
603.489029  	87.326000 
604.925907  	87.498053 
606.362786  	87.662373 
607.799665  	87.811306 
609.236543  	88.013503 
610.673422  	88.170481 
612.110301  	88.306176 
613.547179  	88.462395 
614.984058  	88.617498 
616.420936  	88.746494 
617.857815  	88.808457 
619.294694  	88.871131 
620.731572  	88.966709 
622.168451  	89.063550 
623.605330  	89.173922 
625.042208  	89.235206 
626.479087  	89.279958 
627.915966  	89.300686 
629.352844  	89.328987 
630.789723  	89.341373 
632.226602  	89.323086 
633.663480  	89.286415 
635.100359  	89.250105 
636.537237  	89.007069 
637.974116  	88.778022 
639.410995  	88.711977 
640.847873  	88.636300 
642.284752  	88.511552 
643.721631  	88.196323 
645.158509  	87.844665 
646.595388  	87.689569 
648.032267  	87.419274 
649.469145  	87.066140 
650.906024  	86.800406 
652.342902  	86.485970 
653.779781  	86.218572 
655.216660  	86.089179 
656.653538  	86.340375 
658.090417  	86.966337 
659.527296  	87.561552 
660.964174  	88.095462 
662.401053  	88.578559 
663.837932  	89.004962 
665.274810  	89.356911 
666.711689  	89.822405 
668.148568  	90.077572 
669.585446  	90.324322 
671.022325  	90.696030 
672.459203  	91.164363 
673.896082  	91.401691 
675.332961  	91.593796 
676.769839  	91.769862 
678.206718  	91.936939 
679.643597  	92.065796 
681.080475  	92.208242 
682.517354  	92.300285 
683.954233  	92.357264 
685.391111  	92.409603 
686.827990  	92.437055 
688.264868  	92.259941 
689.701747  	92.057383 
691.138626  	91.916186 
692.575504  	91.860318 
694.012383  	91.811428 
695.449262  	91.759349 
696.886140  	91.662001 
698.323019  	91.465473 
699.759898  	91.333891 
701.196776  	91.280404 
702.633655  	91.211561 
704.070533  	91.292430 
705.507412  	91.474832 
706.944291  	91.540309 
708.381169  	91.579858 
709.818048  	91.632659 
711.254927  	91.638983 
712.691805  	91.675135 
714.128684  	91.793249 
715.565563  	91.971745 
717.002441  	92.118550 
718.439320  	92.152007 
719.876199  	92.162947 
721.313077  	92.194328 
722.749956  	92.251772 
724.186834  	92.258836 
725.623713  	92.161960 
727.060592  	92.078237 
728.497470  	92.034714 
729.934349  	92.062262 
731.371228  	92.086083 
732.808106  	92.001120 
734.244985  	91.929027 
735.681864  	91.896615 
737.118742  	91.866719 
738.555621  	91.965838 
739.992499  	92.144186 
741.429378  	92.227171 
742.866257  	92.150600 
744.303135  	91.920868 
745.740014  	91.726881 
747.176893  	91.677601 
748.613771  	91.667277 
750.050650  	91.693496 
751.487529  	91.748968 
752.924407  	91.826558 
754.361286  	91.977322 
755.798165  	92.130498 
757.235043  	92.285295 
758.671922  	92.434668 
760.108800  	92.491376 
761.545679  	92.497746 
762.982558  	92.380723 
764.419436  	92.125250 
765.856315  	91.884468 
767.293194  	91.507050 
768.730072  	90.910850 
770.166951  	90.308761 
771.603830  	89.774606 
773.040708  	89.450694 
774.477587  	89.482299 
775.914465  	89.734838 
777.351344  	90.153080 
778.788223  	90.684664 
780.225101  	91.216750 
781.661980  	91.743051 
783.098859  	92.213932 
784.535737  	92.605847 
785.972616  	92.874169 
787.409495  	93.008946 
788.846373  	93.187707 
790.283252  	93.401311 
791.720131  	93.525683 
793.157009  	93.613863 
794.593888  	93.663680 
796.030766  	93.645872 
797.467645  	93.575177 
798.904524  	93.429345 
800.341402  	93.200277 
801.778281  	92.817364 
803.215160  	92.231838 
804.652038  	91.540817 
806.088917  	90.794031 
807.525796  	89.904775 
808.962674  	88.758901 
810.399553  	87.392076 
811.836431  	86.077530 
813.273310  	85.108130 
814.710189  	84.741577 
816.147067  	85.181826 
817.583946  	86.143224 
819.020825  	87.199391 
820.457703  	88.184688 
821.894582  	88.913767 
823.331461  	89.273897 
824.768339  	89.131915 
826.205218  	88.457642 
827.642097  	87.650842 
829.078975  	87.089655 
830.515854  	86.904893 
831.952732  	87.175081 
833.389611  	87.733992 
834.826490  	88.404118 
836.263368  	89.140815 
837.700247  	89.850620 
839.137126  	90.512939 
840.574004  	91.088585 
842.010883  	91.543419 
843.447762  	91.923656 
844.884640  	92.186625 
846.321519  	92.299301 
847.758397  	92.287605 
849.195276  	92.179292 
850.632155  	92.027780 
852.069033  	91.813377 
853.505912  	91.545029 
854.942791  	91.350164 
856.379669  	91.250311 
857.816548  	91.206079 
859.253427  	91.244001 
860.690305  	91.362055 
862.127184  	91.535806 
863.564063  	91.707614 
865.000941  	91.846763 
866.437820  	91.983285 
867.874698  	92.104997 
869.311577  	92.184133 
870.748456  	92.153101 
872.185334  	91.999922 
873.622213  	91.870283 
875.059092  	91.770096 
876.495970  	91.607964 
877.932849  	91.481664 
879.369728  	91.453794 
880.806606  	91.467596 
882.243485  	91.501884 
883.680363  	91.545930 
885.117242  	91.627385 
886.554121  	91.719516 
887.990999  	91.740023 
889.427878  	91.731367 
890.864757  	91.725727 
892.301635  	91.684703 
893.738514  	91.624512 
895.175393  	91.550517 
896.612271  	91.456578 
898.049150  	91.318857 
899.486029  	91.060624 
900.922907  	90.715785 
902.359786  	90.409700 
903.796664  	90.187732 
905.233543  	90.066996 
906.670422  	90.048454 
908.107300  	90.064358 
909.544179  	90.028178 
910.981058  	89.947702 
912.417936  	89.881169 
913.854815  	89.751685 
915.291694  	89.511030 
916.728572  	89.259356 
918.165451  	88.940134 
919.602329  	88.422925 
921.039208  	87.789994 
922.476087  	87.161742 
923.912965  	86.581579 
925.349844  	86.041648 
926.786723  	85.498408 
928.223601  	84.977905 
929.660480  	84.466849 
931.097359  	83.941473 
932.534237  	83.430951 
933.971116  	82.878553 
935.407995  	82.349240 
936.844873  	81.976605 
938.281752  	81.715727 
939.718630  	81.587100 
941.155509  	81.593186 
942.592388  	81.654832 
944.029266  	81.801801 
945.466145  	82.013564 
946.903024  	82.241130 
948.339902  	82.453261 
949.776781  	82.605729 
951.213660  	82.755124 
952.650538  	82.921402 
954.087417  	83.104131 
955.524295  	83.356167 
956.961174  	83.611852 
958.398053  	83.838264 
959.834931  	84.071480 
961.271810  	84.300916 
962.708689  	84.575305 
964.145567  	84.864193 
965.582446  	85.063575 
967.019325  	85.178030 
968.456203  	85.220580 
969.893082  	85.219939 
971.329961  	85.213086 
972.766839  	85.204495 
974.203718  	85.254795 
975.640596  	85.341863 
977.077475  	85.404020 
978.514354  	85.461473 
979.951232  	85.441595 
981.388111  	85.324718 
982.824990  	85.178242 
984.261868  	84.973470 
985.698747  	84.782663 
987.135626  	84.680631 
988.572504  	84.599358 
990.009383  	84.545654 
991.446261  	84.479513 
992.883140  	84.362396 
994.320019  	84.239465 
995.756897  	83.982396 
997.193776  	83.544205 
998.630655  	83.030005 
1000.067533  	82.363644 
1001.504412  	81.548003 
1002.941291  	80.715408 
1004.378169  	79.848023 
1005.815048  	78.828736 
1007.251926  	77.493391 
1008.688805  	75.959965 
1010.125684  	74.640813 
1011.562562  	73.755246 
1012.999441  	73.361290 
1014.436320  	73.282422 
1015.873198  	73.338136 
1017.310077  	73.622211 
1018.746956  	74.027867 
1020.183834  	74.446905 
1021.620713  	74.928460 
1023.057592  	75.399509 
1024.494470  	75.907402 
1025.931349  	76.485958 
1027.368227  	77.065405 
1028.805106  	77.686796 
1030.241985  	78.263458 
1031.678863  	78.626260 
1033.115742  	78.637774 
1034.552621  	78.226227 
1035.989499  	77.633326 
1037.426378  	77.107359 
1038.863257  	76.699969 
1040.300135  	76.551192 
1041.737014  	76.635081 
1043.173892  	76.845829 
1044.610771  	77.171859 
1046.047650  	77.487898 
1047.484528  	77.805336 
1048.921407  	78.139697 
1050.358286  	78.355049 
1051.795164  	78.490726 
1053.232043  	78.583392 
1054.668922  	78.608936 
1056.105800  	78.621683 
1057.542679  	78.623960 
1058.979558  	78.691661 
1060.416436  	78.855756 
1061.853315  	79.036460 
1063.290193  	79.268246 
1064.727072  	79.470328 
1066.163951  	79.575202 
1067.600829  	79.662820 
1069.037708  	79.674670 
1070.474587  	79.653101 
1071.911465  	79.666094 
1073.348344  	79.626380 
1074.785223  	79.694615 
1076.222101  	80.023398 
1077.658980  	80.560050 
1079.095858  	81.266243 
1080.532737  	81.983939 
1081.969616  	82.660803 
1083.406494  	83.334171 
1084.843373  	83.875567 
1086.280252  	84.294093 
1087.717130  	84.735973 
1089.154009  	85.200276 
1090.590888  	85.619658 
1092.027766  	85.914522 
1093.464645  	86.019010 
1094.901524  	85.955564 
1096.338402  	85.751134 
1097.775281  	85.400169 
1099.212159  	84.933162 
1100.649038  	84.407261 
1102.085917  	83.855403 
1103.522795  	83.212242 
1104.959674  	82.478757 
1106.396553  	81.753139 
1107.833431  	81.020393 
1109.270310  	80.312347 
1110.707189  	79.611857 
1112.144067  	78.788336 
1113.580946  	77.904149 
1115.017824  	76.993489 
1116.454703  	76.147390 
1117.891582  	75.588264 
1119.328460  	75.160598 
1120.765339  	74.651877 
1122.202218  	73.980959 
1123.639096  	73.119708 
1125.075975  	72.285573 
1126.512854  	71.450479 
1127.949732  	70.471703 
1129.386611  	69.474313 
1130.823490  	68.391083 
1132.260368  	67.268232 
1133.697247  	66.217601 
1135.134125  	65.121080 
1136.571004  	64.175557 
1138.007883  	63.416721 
1139.444761  	62.697922 
1140.881640  	62.159012 
1142.318519  	61.684255 
1143.755397  	61.243302 
1145.192276  	60.865978 
1146.629155  	60.320006 
1148.066033  	59.698833 
1149.502912  	58.983887 
1150.939790  	58.111650 
1152.376669  	57.334229 
1153.813548  	56.522185 
1155.250426  	55.742303 
1156.687305  	55.195117 
1158.124184  	54.631930 
1159.561062  	54.220080 
1160.997941  	54.019062 
1162.434820  	53.854599 
1163.871698  	53.949573 
1165.308577  	54.172768 
1166.745456  	54.528113 
1168.182334  	55.190818 
1169.619213  	55.874626 
1171.056091  	56.678997 
1172.492970  	57.644156 
1173.929849  	58.559497 
1175.366727  	59.600975 
1176.803606  	60.663363 
1178.240485  	61.671168 
1179.677363  	62.775714 
1181.114242  	63.823956 
1182.551121  	64.890177 
1183.987999  	66.041724 
1185.424878  	67.140973 
1186.861756  	68.286298 
1188.298635  	69.412127 
1189.735514  	70.441819 
1191.172392  	71.439465 
1192.609271  	72.286155 
1194.046150  	73.004366 
1195.483028  	73.656040 
1196.919907  	74.216098 
1198.356786  	74.822111 
1199.793664  	75.463771 
1201.230543  	76.066634 
1202.667422  	76.691140 
1204.104300  	77.284799 
1205.541179  	77.811158 
1206.978057  	78.228804 
1208.414936  	78.428510 
1209.851815  	78.411492 
1211.288693  	78.139197 
1212.725572  	77.594199 
1214.162451  	76.896047 
1215.599329  	76.030699 
1217.036208  	75.056019 
1218.473087  	74.136145 
1219.909965  	73.258217 
1221.346844  	72.486293 
1222.783722  	71.781786 
1224.220601  	71.037058 
1225.657480  	70.333714 
1227.094358  	69.563970 
1228.531237  	68.747662 
1229.968116  	68.050450 
1231.404994  	67.394524 
1232.841873  	66.911007 
1234.278752  	66.642312 
1235.715630  	66.457191 
1237.152509  	66.436676 
1238.589388  	66.444939 
1240.026266  	66.470490 
1241.463145  	66.628644 
1242.900023  	66.759885 
1244.336902  	66.967021 
1245.773781  	67.252884 
1247.210659  	67.482958 
1248.647538  	67.882811 
1250.084417  	68.416137 
1251.521295  	69.041401 
1252.958174  	69.907353 
1254.395053  	70.869266 
1255.831931  	71.962782 
1257.268810  	73.194664 
1258.705688  	74.380126 
1260.142567  	75.601556 
1261.579446  	76.790576 
1263.016324  	77.814127 
1264.453203  	78.732870 
1265.890082  	79.482255 
1267.326960  	80.076546 
1268.763839  	80.574210 
1270.200718  	80.911700 
1271.637596  	81.168555 
1273.074475  	81.416015 
1274.511353  	81.626221 
1275.948232  	81.816946 
1277.385111  	81.950209 
1278.821989  	82.007969 
1280.258868  	81.980592 
1281.695747  	81.843735 
1283.132625  	81.668010 
1284.569504  	81.410701 
1286.006383  	80.969260 
1287.443261  	80.330185 
1288.880140  	79.441619 
1290.317019  	78.324293 
1291.753897  	77.004945 
1293.190776  	75.666803 
1294.627654  	74.737724 
1296.064533  	74.317539 
1297.501412  	74.502081 
1298.938290  	75.267404 
1300.375169  	76.234466 
1301.812048  	77.275210 
1303.248926  	78.325938 
1304.685805  	78.799433 
1306.122684  	79.568303 
1307.559562  	80.045361 
1308.996441  	80.553622 
1310.433319  	81.742206 
1311.870198  	81.925736 
1313.307077  	81.889840 
1314.743955  	81.768831 
1316.180834  	81.471263 
1317.617713  	81.128251 
1319.054591  	80.953198 
1320.491470  	81.078210 
1321.928349  	81.609994 
1323.365227  	82.423882 
1324.802106  	83.501845 
1326.238985  	84.780436 
1327.675863  	85.543591 
1329.112742  	86.537537 
1330.549620  	87.542050 
1331.986499  	88.408030 
1333.423378  	89.372397 
1334.860256  	89.597669 
1336.297135  	89.637969 
1337.734014  	89.538618 
1339.170892  	89.407068 
1340.607771  	89.468515 
1342.044650  	89.786728 
1343.481528  	90.047622 
1344.918407  	90.210436 
1346.355285  	90.412918 
1347.792164  	90.420979 
1349.229043  	90.381723 
1350.665921  	90.347155 
1352.102800  	90.312209 
1353.539679  	90.107120 
1354.976557  	89.920316 
1356.413436  	89.712858 
1357.850315  	89.500284 
1359.287193  	89.231353 
1360.724072  	88.896478 
1362.160951  	88.501824 
1363.597829  	88.111893 
1365.034708  	87.976419 
1366.471586  	87.931479 
1367.908465  	88.008892 
1369.345344  	88.174385 
1370.782222  	88.389889 
1372.219101  	88.539520 
1373.655980  	88.621364 
1375.092858  	88.689775 
1376.529737  	88.837352 
1377.966616  	88.984779 
1379.403494  	89.098229 
1380.840373  	89.206057 
1382.277251  	89.207658 
1383.714130  	89.062416 
1385.151009  	88.928804 
1386.587887  	88.753024 
1388.024766  	88.714290 
1389.461645  	88.953789 
1390.898523  	89.274003 
1392.335402  	89.696044 
1393.772281  	90.072617 
1395.209159  	90.327035 
1396.646038  	90.517790 
1398.082917  	90.655844 
1399.519795  	90.762734 
1400.956674  	90.929871 
1402.393552  	91.054772 
1403.830431  	90.972250 
1405.267310  	90.890428 
1406.704188  	90.871073 
1408.141067  	90.907672 
1409.577946  	90.998374 
1411.014824  	91.026021 
1412.451703  	91.076885 
1413.888582  	91.100723 
1415.325460  	91.060557 
1416.762339  	91.018567 
1418.199217  	91.002856 
1419.636096  	91.140895 
1421.072975  	91.289531 
1422.509853  	91.349727 
1423.946732  	91.534495 
1425.383611  	91.499213 
1426.820489  	91.436864 
1428.257368  	91.273371 
1429.694247  	90.698545 
1431.131125  	90.125773 
1432.568004  	89.576703 
1434.004883  	89.030073 
1435.441761  	88.608676 
1436.878640  	87.949022 
1438.315518  	87.494956 
1439.752397  	87.187982 
1441.189276  	86.814028 
1442.626154  	86.372265 
1444.063033  	85.886380 
1445.499912  	85.272540 
1446.936790  	84.839393 
1448.373669  	84.186784 
1449.810548  	83.730942 
1451.247426  	83.527356 
1452.684305  	83.371082 
1454.121183  	83.627803 
1455.558062  	83.900198 
1456.994941  	84.039502 
1458.431819  	84.539786 
1459.868698  	84.673072 
1461.305577  	85.145657 
1462.742455  	85.674849 
1464.179334  	86.062041 
1465.616213  	86.612330 
1467.053091  	87.142543 
1468.489970  	87.851991 
1469.926849  	88.664100 
1471.363727  	89.227706 
1472.800606  	89.878988 
1474.237484  	90.340220 
1475.674363  	90.617719 
1477.111242  	91.476537 
1478.548120  	92.291335 
1479.984999  	92.923495 
1481.421878  	93.570800 
1482.858756  	93.997657 
1484.295635  	94.471660 
1485.732514  	94.886929 
1487.169392  	95.040728 
1488.606271  	95.159927 
1490.043149  	94.792309 
1491.480028  	94.567407 
1492.916907  	94.739012 
1494.353785  	94.566431 
1495.790664  	94.147116 
1497.227543  	93.592760 
1498.664421  	92.590312 
1500.101300  	91.530397 
1501.538179  	90.454972 
1502.975057  	89.240590 
1504.411936  	88.327342 
1505.848815  	87.426226 
1507.285693  	83.553622 
1508.722572  	82.084180 
1510.159450  	81.853416 
1511.596329  	81.989165 
1513.033208  	82.919030 
1514.470086  	83.689007 
1515.906965  	84.485207 
1517.343844  	85.568127 
1518.780722  	85.940408 
1520.217601  	86.331035 
1521.654480  	86.442911 
1523.091358  	86.215914 
1524.528237  	86.296065 
1525.965115  	86.266586 
1527.401994  	86.499435 
1528.838873  	86.738719 
1530.275751  	86.913890 
1531.712630  	87.353154 
1533.149509  	87.697716 
1534.586387  	88.071892 
1536.023266  	88.587855 
1537.460145  	89.036817 
1538.897023  	89.513532 
1540.333902  	89.798337 
1541.770780  	90.234901 
1543.207659  	90.681297 
1544.644538  	90.998340 
1546.081416  	91.780605 
1547.518295  	92.490010 
1548.955174  	92.810473 
1550.392052  	93.180071 
1551.828931  	93.694186 
1553.265810  	94.262088 
1554.702688  	94.749600 
1556.139567  	95.173535 
1557.576446  	95.674593 
1559.013324  	94.746315 
1560.450203  	95.340332 
1561.887081  	96.233881 
1563.323960  	96.662136 
1564.760839  	96.871801 
1566.197717  	97.088027 
1567.634596  	97.346992 
1569.071475  	97.484636 
1570.508353  	97.571158 
1571.945232  	97.729102 
1573.382111  	97.852379 
1574.818989  	98.039836 
1576.255868  	97.653416 
1577.692746  	97.332969 
1579.129625  	97.555138 
1580.566504  	97.753677 
1582.003382  	97.823893 
1583.440261  	97.943847 
1584.877140  	98.077291 
1586.314018  	98.220557 
1587.750897  	98.399293 
1589.187776  	98.486897 
1590.624654  	98.539782 
1592.061533  	98.483494 
1593.498412  	98.347946 
1594.935290  	98.225202 
1596.372169  	98.125688 
1597.809047  	98.083473 
1599.245926  	98.049807 
1600.682805  	97.827007 
1602.119683  	97.552219 
1603.556562  	97.276446 
1604.993441  	96.997788 
1606.430319  	96.677324 
1607.867198  	96.226351 
1609.304077  	96.077951 
1610.740955  	96.171972 
1612.177834  	96.223251 
1613.614712  	96.505370 
1615.051591  	96.588983 
1616.488470  	96.557087 
1617.925348  	96.520495 
1619.362227  	96.288856 
1620.799106  	96.219964 
1622.235984  	96.250532 
1623.672863  	95.707415 
1625.109742  	95.238435 
1626.546620  	95.040960 
1627.983499  	94.723552 
1629.420378  	94.336082 
1630.857256  	93.947560 
1632.294135  	93.341527 
1633.731013  	93.019424 
1635.167892  	92.675619 
1636.604771  	91.820144 
1638.041649  	91.680082 
1639.478528  	91.917908 
1640.915407  	92.691325 
1642.352285  	93.730015 
1643.789164  	94.885106 
1645.226043  	95.864121 
1646.662921  	96.116464 
1648.099800  	96.363300 
1649.536678  	96.404468 
1650.973557  	96.710524 
1652.410436  	97.625152 
1653.847314  	95.682934 
1655.284193  	95.800051 
1656.721072  	96.222283 
1658.157950  	96.149552 
1659.594829  	96.134156 
1661.031708  	95.951123 
1662.468586  	95.684339 
1663.905465  	95.483379 
1665.342344  	95.174393 
1666.779222  	94.909041 
1668.216101  	94.652697 
1669.652979  	93.825326 
1671.089858  	93.242499 
1672.526737  	92.750454 
1673.963615  	92.297478 
1675.400494  	91.932919 
1676.837373  	91.025979 
1678.274251  	90.419685 
1679.711130  	89.537155 
1681.148009  	88.306964 
1682.584887  	88.202054 
1684.021766  	88.007111 
1685.458644  	84.666083 
1686.895523  	84.079158 
1688.332402  	82.711137 
1689.769280  	81.092457 
1691.206159  	79.977528 
1692.643038  	78.374904 
1694.079916  	77.044776 
1695.516795  	76.003158 
1696.953674  	72.468376 
1698.390552  	71.445921 
1699.827431  	70.498256 
1701.264310  	66.692818 
1702.701188  	65.592110 
1704.138067  	64.159150 
1705.574945  	62.488217 
1707.011824  	61.102857 
1708.448703  	59.399146 
1709.885581  	58.390653 
1711.322460  	57.382234 
1712.759339  	56.116133 
1714.196217  	55.742333 
1715.633096  	55.243410 
1717.069975  	54.575583 
1718.506853  	55.539358 
1719.943732  	55.995896 
1721.380610  	56.664699 
1722.817489  	57.831993 
1724.254368  	58.791335 
1725.691246  	60.133938 
1727.128125  	61.479659 
1728.565004  	62.666251 
1730.001882  	64.254820 
1731.438761  	65.711692 
1732.875640  	66.595188 
1734.312518  	68.936960 
1735.749397  	71.227041 
1737.186276  	72.754118 
1738.623154  	74.882845 
1740.060033  	77.602498 
1741.496911  	79.952430 
1742.933790  	82.190388 
1744.370669  	84.213194 
1745.807547  	86.323962 
1747.244426  	87.908727 
1748.681305  	88.805911 
1750.118183  	90.268214 
1751.555062  	90.974181 
1752.991941  	91.860206 
1754.428819  	93.307847 
1755.865698  	93.804470 
1757.302576  	94.362168 
1758.739455  	95.163060 
1760.176334  	95.664728 
1761.613212  	96.468452 
1763.050091  	97.116448 
1764.486970  	97.667810 
1765.923848  	98.459645 
1767.360727  	98.690997 
1768.797606  	98.941740 
1770.234484  	99.349112 
1771.671363  	99.477513 
1773.108242  	99.742465 
1774.545120  	99.864406 
1775.981999  	99.909897 
1777.418877  	100.195332 
1778.855756  	100.286325 
1780.292635  	100.381672 
1781.729513  	100.649549 
1783.166392  	100.764225 
1784.603271  	100.962166 
1786.040149  	101.086148 
1787.477028  	101.166504 
1788.913907  	101.365416 
1790.350785  	101.328028 
1791.787664  	101.284446 
1793.224542  	101.435930 
1794.661421  	101.284806 
1796.098300  	101.352378 
1797.535178  	101.495501 
1798.972057  	101.513624 
1800.408936  	101.674569 
1801.845814  	101.599434 
1803.282693  	101.596339 
1804.719572  	101.827609 
1806.156450  	101.816943 
1807.593329  	101.869830 
1809.030207  	101.953721 
1810.467086  	101.881473 
1811.903965  	101.995567 
1813.340843  	102.026812 
1814.777722  	102.045827 
1816.214601  	102.165480 
1817.651479  	102.059076 
1819.088358  	102.135091 
1820.525237  	102.286866 
1821.962115  	102.213375 
1823.398994  	102.329251 
1824.835873  	102.339038 
1826.272751  	102.230475 
1827.709630  	102.393540 
1829.146508  	102.319970 
1830.583387  	102.264532 
1832.020266  	102.376198 
1833.457144  	102.277418 
1834.894023  	102.372683 
1836.330902  	102.452056 
1837.767780  	102.405960 
1839.204659  	102.562749 
1840.641538  	102.568237 
1842.078416  	102.599569 
1843.515295  	102.749898 
1844.952173  	102.521182 
1846.389052  	102.530749 
1847.825931  	102.521533 
1849.262809  	102.428859 
1850.699688  	102.638746 
1852.136567  	102.629344 
1853.573445  	102.486362 
1855.010324  	102.664271 
1856.447203  	102.542571 
1857.884081  	102.660012 
1859.320960  	102.761270 
1860.757839  	102.545066 
1862.194717  	102.684286 
1863.631596  	102.660778 
1865.068474  	102.689512 
1866.505353  	102.874786 
1867.942232  	102.630319 
1869.379110  	102.502727 
1870.815989  	102.586182 
1872.252868  	102.495867 
1873.689746  	102.633419 
1875.126625  	102.615782 
1876.563504  	102.527521 
1878.000382  	102.654396 
1879.437261  	102.579120 
1880.874139  	102.670383 
1882.311018  	102.755000 
1883.747897  	102.682527 
1885.184775  	102.748477 
1886.621654  	102.671766 
1888.058533  	102.588055 
1889.495411  	102.771551 
1890.932290  	102.605307 
1892.369169  	102.591084 
1893.806047  	102.707774 
1895.242926  	102.525800 
1896.679805  	102.643856 
1898.116683  	102.754079 
1899.553562  	102.751215 
1900.990440  	102.875760 
1902.427319  	102.730077 
1903.864198  	102.816876 
1905.301076  	103.038842 
1906.737955  	102.888027 
1908.174834  	103.062377 
1909.611712  	103.073175 
1911.048591  	102.863924 
1912.485470  	103.106153 
1913.922348  	103.009315 
1915.359227  	102.909273 
1916.796105  	103.152855 
1918.232984  	103.029128 
1919.669863  	103.074461 
1921.106741  	103.173205 
1922.543620  	103.006943 
1923.980499  	103.135462 
1925.417377  	103.090452 
1926.854256  	103.032903 
1928.291135  	103.157897 
1929.728013  	103.125026 
1931.164892  	103.206123 
1932.601771  	103.327910 
1934.038649  	103.246195 
1935.475528  	103.387912 
1936.912406  	103.364303 
1938.349285  	103.354646 
1939.786164  	103.542899 
1941.223042  	103.321917 
1942.659921  	103.443874 
1944.096800  	103.693380 
1945.533678  	103.445647 
1946.970557  	103.554127 
1948.407436  	103.541659 
1949.844314  	103.404870 
1951.281193  	103.749148 
1952.718071  	103.534402 
1954.154950  	103.531928 
1955.591829  	103.795260 
1957.028707  	103.664506 
1958.465586  	103.943703 
1959.902465  	103.843277 
1961.339343  	103.618705 
1962.776222  	104.076629 
1964.213101  	103.860259 
1965.649979  	103.806241 
1967.086858  	103.979058 
1968.523737  	103.529671 
1969.960615  	103.808221 
1971.397494  	103.671481 
1972.834372  	103.376804 
1974.271251  	104.121808 
1975.708130  	103.925435 
1977.145008  	103.745209 
1978.581887  	103.998626 
1980.018766  	103.520614 
1981.455644  	103.781536 
1982.892523  	103.703520 
1984.329402  	103.275905 
1985.766280  	103.572208 
1987.203159  	103.336669 
1988.640037  	103.193027 
1990.076916  	103.534571 
1991.513795  	103.276410 
1992.950673  	103.282731 
1994.387552  	103.283888 
1995.824431  	103.087545 
1997.261309  	103.779270 
1998.698188  	103.683491 
2000.135067  	103.469567 
2001.571945  	103.965092 
2003.008824  	103.477796 
2004.445703  	103.597446 
2005.882581  	103.812355 
2007.319460  	103.317023 
2008.756338  	103.930928 
2010.193217  	103.738011 
2011.630096  	103.453059 
2013.066974  	103.975538 
2014.503853  	103.400170 
2015.940732  	103.840713 
2017.377610  	104.488981 
2018.814489  	103.765590 
2020.251368  	104.206317 
2021.688246  	103.833873 
2023.125125  	103.145245 
2024.562003  	103.848781 
2025.998882  	103.515746 
2027.435761  	103.618345 
2028.872639  	104.005414 
2030.309518  	103.071388 
2031.746397  	103.282341 
2033.183275  	103.399832 
2034.620154  	102.950470 
2036.057033  	103.292012 
2037.493911  	103.011136 
2038.930790  	103.243749 
2040.367669  	103.657922 
2041.804547  	103.057849 
2043.241426  	103.090991 
2044.678304  	102.796273 
2046.115183  	102.523095 
2047.552062  	103.185117 
2048.988940  	103.016396 
2050.425819  	103.021181 
2051.862698  	103.202630 
2053.299576  	102.625937 
2054.736455  	102.774778 
2056.173334  	103.019313 
2057.610212  	102.898443 
2059.047091  	103.247280 
2060.483969  	103.101647 
2061.920848  	102.943565 
2063.357727  	103.002460 
2064.794605  	102.587462 
2066.231484  	102.785939 
2067.668363  	103.015030 
2069.105241  	102.836231 
2070.542120  	103.082326 
2071.978999  	102.970704 
2073.415877  	102.912547 
2074.852756  	103.163242 
2076.289635  	102.882360 
2077.726513  	102.979709 
2079.163392  	103.219208 
2080.600270  	103.082340 
2082.037149  	103.305118 
2083.474028  	103.283972 
2084.910906  	103.175217 
2086.347785  	103.331750 
2087.784664  	103.066717 
2089.221542  	103.046542 
2090.658421  	103.232729 
2092.095300  	103.126260 
2093.532178  	103.352341 
2094.969057  	103.427721 
2096.405935  	103.279452 
2097.842814  	103.327160 
2099.279693  	103.197642 
2100.716571  	103.427789 
2102.153450  	103.720068 
2103.590329  	103.568593 
2105.027207  	103.645206 
2106.464086  	103.523978 
2107.900965  	103.367967 
2109.337843  	103.631941 
2110.774722  	103.608769 
2112.211600  	103.675290 
2113.648479  	103.788325 
2115.085358  	103.580239 
2116.522236  	103.709715 
2117.959115  	103.663671 
2119.395994  	103.505801 
2120.832872  	103.850346 
2122.269751  	103.922455 
2123.706630  	103.994788 
2125.143508  	104.156884 
2126.580387  	103.864524 
2128.017266  	103.978113 
2129.454144  	104.214332 
2130.891023  	104.192624 
2132.327901  	104.407039 
2133.764780  	104.170714 
2135.201659  	104.113560 
2136.638537  	104.468608 
2138.075416  	104.197533 
2139.512295  	104.366083 
2140.949173  	104.543487 
2142.386052  	104.183009 
2143.822931  	104.442005 
2145.259809  	104.399004 
2146.696688  	104.335337 
2148.133566  	104.683286 
2149.570445  	104.454596 
2151.007324  	104.965729 
2152.444202  	105.384012 
2153.881081  	104.841461 
2155.317960  	105.056478 
2156.754838  	104.579288 
2158.191717  	104.254918 
2159.628596  	105.164388 
2161.065474  	104.481461 
2162.502353  	104.418508 
2163.939232  	104.640515 
2165.376110  	103.945136 
2166.812989  	104.180724 
2168.249867  	103.879318 
2169.686746  	103.419826 
2171.123625  	103.966910 
2172.560503  	103.846864 
2173.997382  	104.010177 
2175.434261  	104.285519 
2176.871139  	103.581703 
2178.308018  	103.790566 
2179.744897  	104.010866 
2181.181775  	103.658468 
2182.618654  	103.755303 
2184.055532  	103.365076 
2185.492411  	103.434467 
2186.929290  	103.916331 
2188.366168  	103.653154 
2189.803047  	103.918341 
2191.239926  	104.016794 
2192.676804  	103.573283 
2194.113683  	103.745161 
2195.550562  	103.697923 
2196.987440  	103.691319 
2198.424319  	103.899934 
2199.861198  	103.644586 
2201.298076  	103.771406 
2202.734955  	103.772500 
2204.171833  	103.469056 
2205.608712  	103.663359 
2207.045591  	103.569929 
2208.482469  	103.570894 
2209.919348  	103.785961 
2211.356227  	103.483073 
2212.793105  	103.562839 
2214.229984  	103.639702 
2215.666863  	103.432676 
2217.103741  	103.658661 
2218.540620  	103.487806 
2219.977498  	103.328207 
2221.414377  	103.578762 
2222.851256  	103.423810 
2224.288134  	103.524252 
2225.725013  	103.639255 
2227.161892  	103.396741 
2228.598770  	103.495454 
2230.035649  	103.319904 
2231.472528  	103.160136 
2232.909406  	103.336741 
2234.346285  	103.054632 
2235.783164  	103.085354 
2237.220042  	103.360063 
2238.656921  	103.187089 
2240.093799  	103.263288 
2241.530678  	103.282252 
2242.967557  	103.186423 
2244.404435  	103.385150 
2245.841314  	103.348394 
2247.278193  	103.351615 
2248.715071  	103.412404 
2250.151950  	103.318650 
2251.588829  	103.450047 
2253.025707  	103.418602 
2254.462586  	103.288410 
2255.899464  	103.404876 
2257.336343  	103.354193 
2258.773222  	103.337814 
2260.210100  	103.427103 
2261.646979  	103.335146 
2263.083858  	103.392356 
2264.520736  	103.444875 
2265.957615  	103.390110 
2267.394494  	103.505059 
2268.831372  	103.473709 
2270.268251  	103.411533 
2271.705130  	103.467629 
2273.142008  	103.403034 
2274.578887  	103.430289 
2276.015765  	103.483317 
2277.452644  	103.428300 
2278.889523  	103.434041 
2280.326401  	103.384969 
2281.763280  	103.376754 
2283.200159  	103.421593 
2284.637037  	103.345477 
2286.073916  	103.350003 
2287.510795  	103.345001 
2288.947673  	103.278767 
2290.384552  	103.297407 
2291.821430  	103.268564 
2293.258309  	103.267401 
2294.695188  	103.050526 
2296.132066  	103.249510 
2297.568945  	103.162202 
2299.005824  	103.135987 
2300.442702  	103.097525 
2301.879581  	103.134986 
2303.316460  	103.034689 
2304.753338  	102.913723 
2306.190217  	102.994625 
2307.627096  	102.964564 
2309.063974  	102.994759 
2310.500853  	103.104437 
2311.937731  	103.029309 
2313.374610  	103.055635 
2314.811489  	103.139923 
2316.248367  	103.106879 
2317.685246  	103.027935 
2319.122125  	102.904402 
2320.559003  	102.962962 
2321.995882  	103.009494 
2323.432761  	102.815811 
2324.869639  	102.750682 
2326.306518  	102.767144 
2327.743396  	102.833739 
2329.180275  	102.945463 
2330.617154  	102.847234 
2332.054032  	102.905600 
2333.490911  	103.134363 
2334.927790  	103.174267 
2336.364668  	103.286787 
2337.801547  	103.331313 
2339.238426  	103.263609 
2340.675304  	103.284863 
2342.112183  	103.073729 
2343.549062  	102.909096 
2344.985940  	102.887535 
2346.422819  	102.657781 
2347.859697  	102.577050 
2349.296576  	102.650908 
2350.733455  	102.838550 
2352.170333  	103.231111 
2353.607212  	103.461165 
2355.044091  	103.529561 
2356.480969  	103.658282 
2357.917848  	103.577296 
2359.354727  	103.569604 
2360.791605  	103.523769 
2362.228484  	103.261993 
2363.665362  	103.262340 
2365.102241  	103.277409 
2366.539120  	103.268277 
2367.975998  	103.305975 
2369.412877  	103.086931 
2370.849756  	102.996646 
2372.286634  	102.992900 
2373.723513  	102.859886 
2375.160392  	102.888490 
2376.597270  	102.862351 
2378.034149  	102.755276 
2379.471027  	102.791138 
2380.907906  	102.825000 
2382.344785  	102.923394 
2383.781663  	103.075936 
2385.218542  	103.165959 
2386.655421  	103.306281 
2388.092299  	103.386063 
2389.529178  	103.432644 
2390.966057  	103.566529 
2392.402935  	103.629821 
2393.839814  	103.668494 
2395.276693  	103.728584 
2396.713571  	103.710978 
2398.150450  	103.708914 
2399.587328  	103.690218 
2401.024207  	103.677700 
2402.461086  	103.745637 
2403.897964  	103.764494 
2405.334843  	103.796697 
2406.771722  	103.829476 
2408.208600  	103.789775 
2409.645479  	103.805285 
2411.082358  	103.774768 
2412.519236  	103.751621 
2413.956115  	103.838753 
2415.392993  	103.833633 
2416.829872  	103.853564 
2418.266751  	103.908683 
2419.703629  	103.864173 
2421.140508  	103.911526 
2422.577387  	103.897456 
2424.014265  	103.792976 
2425.451144  	103.846116 
2426.888023  	103.852347 
2428.324901  	103.828675 
2429.761780  	103.843300 
2431.198659  	103.761397 
2432.635537  	103.795377 
2434.072416  	103.845483 
2435.509294  	103.786843 
2436.946173  	103.844094 
2438.383052  	103.861999 
2439.819930  	103.849009 
2441.256809  	103.885292 
2442.693688  	103.795599 
2444.130566  	103.808711 
2445.567445  	103.908465 
2447.004324  	103.881934 
2448.441202  	103.909679 
2449.878081  	103.908622 
2451.314959  	103.859525 
2452.751838  	103.876783 
2454.188717  	103.820375 
2455.625595  	103.804142 
2457.062474  	103.842921 
2458.499353  	103.839264 
2459.936231  	103.905188 
2461.373110  	103.905856 
2462.809989  	103.881888 
2464.246867  	103.920533 
2465.683746  	103.817475 
2467.120625  	103.768938 
2468.557503  	103.825354 
2469.994382  	103.795085 
2471.431260  	103.846710 
2472.868139  	103.901582 
2474.305018  	103.898533 
2475.741896  	103.944342 
2477.178775  	103.882917 
2478.615654  	103.855516 
2480.052532  	103.919967 
2481.489411  	103.887747 
2482.926290  	103.899253 
2484.363168  	103.897933 
2485.800047  	103.858606 
2487.236925  	103.914404 
2488.673804  	103.875505 
2490.110683  	103.843433 
2491.547561  	103.906399 
2492.984440  	103.868938 
2494.421319  	103.869669 
2495.858197  	103.873734 
2497.295076  	103.816278 
2498.731955  	103.860751 
2500.168833  	103.870463 
2501.605712  	103.874982 
2503.042591  	103.926346 
2504.479469  	103.877006 
2505.916348  	103.892377 
2507.353226  	103.926451 
2508.790105  	103.888302 
2510.226984  	103.935317 
2511.663862  	103.913225 
2513.100741  	103.859929 
2514.537620  	103.882890 
2515.974498  	103.831445 
2517.411377  	103.855230 
2518.848256  	103.904684 
2520.285134  	103.867586 
2521.722013  	103.941843 
2523.158891  	103.963791 
2524.595770  	103.921477 
2526.032649  	103.968295 
2527.469527  	103.924133 
2528.906406  	103.912807 
2530.343285  	103.957852 
2531.780163  	103.899475 
2533.217042  	103.926476 
2534.653921  	103.942166 
2536.090799  	103.875221 
2537.527678  	103.909137 
2538.964557  	103.911722 
2540.401435  	103.918380 
2541.838314  	103.999443 
2543.275192  	103.981585 
2544.712071  	103.917976 
2546.148950  	103.873609 
2547.585828  	103.903996 
2549.022707  	103.985824 
2550.459586  	103.936190 
2551.896464  	103.891211 
2553.333343  	103.899611 
2554.770222  	103.866064 
2556.207100  	103.904575 
2557.643979  	103.896576 
2559.080857  	103.850862 
2560.517736  	103.893150 
2561.954615  	103.838624 
2563.391493  	103.809626 
2564.828372  	103.870377 
2566.265251  	103.842509 
2567.702129  	103.885869 
2569.139008  	103.916778 
2570.575887  	103.833362 
2572.012765  	103.859292 
2573.449644  	103.873590 
2574.886523  	103.829282 
2576.323401  	103.829691 
2577.760280  	103.769893 
2579.197158  	103.743246 
2580.634037  	103.776201 
2582.070916  	103.766295 
2583.507794  	103.751983 
2584.944673  	103.711936 
2586.381552  	103.709595 
2587.818430  	103.717668 
2589.255309  	103.656689 
2590.692188  	103.688534 
2592.129066  	103.708299 
2593.565945  	103.645694 
2595.002823  	103.682489 
2596.439702  	103.664601 
2597.876581  	103.598691 
2599.313459  	103.644125 
2600.750338  	103.663754 
2602.187217  	103.681806 
2603.624095  	103.702688 
2605.060974  	103.667553 
2606.497853  	103.684238 
2607.934731  	103.673968 
2609.371610  	103.639295 
2610.808489  	103.655181 
2612.245367  	103.635884 
2613.682246  	103.662758 
2615.119124  	103.677132 
2616.556003  	103.600573 
2617.992882  	103.615393 
2619.429760  	103.623015 
2620.866639  	103.586045 
2622.303518  	103.641381 
2623.740396  	103.638651 
2625.177275  	103.602279 
2626.614154  	103.623966 
2628.051032  	103.606807 
2629.487911  	103.616029 
2630.924789  	103.640693 
2632.361668  	103.641028 
2633.798547  	103.674068 
2635.235425  	103.660029 
2636.672304  	103.649744 
2638.109183  	103.690355 
2639.546061  	103.679233 
2640.982940  	103.681265 
2642.419819  	103.696129 
2643.856697  	103.684808 
2645.293576  	103.715010 
2646.730454  	103.725635 
2648.167333  	103.726812 
2649.604212  	103.759237 
2651.041090  	103.757642 
2652.477969  	103.766779 
2653.914848  	103.774233 
2655.351726  	103.762906 
2656.788605  	103.792335 
2658.225484  	103.784079 
2659.662362  	103.777834 
2661.099241  	103.838529 
2662.536120  	103.836485 
2663.972998  	103.805841 
2665.409877  	103.820001 
2666.846755  	103.833553 
2668.283634  	103.856307 
2669.720513  	103.858976 
2671.157391  	103.862451 
2672.594270  	103.892698 
2674.031149  	103.877270 
2675.468027  	103.885873 
2676.904906  	103.935786 
2678.341785  	103.940544 
2679.778663  	103.958724 
2681.215542  	103.978888 
2682.652420  	103.970453 
2684.089299  	103.984039 
2685.526178  	103.983136 
2686.963056  	103.986466 
2688.399935  	104.011319 
2689.836814  	104.006016 
2691.273692  	103.998774 
2692.710571  	103.986810 
2694.147450  	103.980623 
2695.584328  	104.001640 
2697.021207  	103.994745 
2698.458086  	103.992971 
2699.894964  	103.994019 
2701.331843  	103.971759 
2702.768721  	103.997317 
2704.205600  	104.000113 
2705.642479  	103.958692 
2707.079357  	103.967328 
2708.516236  	103.962584 
2709.953115  	103.953507 
2711.389993  	103.980622 
2712.826872  	103.981713 
2714.263751  	103.992176 
2715.700629  	103.996718 
2717.137508  	103.970630 
2718.574386  	103.972394 
2720.011265  	103.968314 
2721.448144  	103.976329 
2722.885022  	103.997852 
2724.321901  	103.967467 
2725.758780  	103.957952 
2727.195658  	103.964478 
2728.632537  	103.946190 
2730.069416  	103.948489 
2731.506294  	103.926306 
2732.943173  	103.918183 
2734.380052  	103.941307 
2735.816930  	103.903062 
2737.253809  	103.889433 
2738.690687  	103.906319 
2740.127566  	103.885314 
2741.564445  	103.905535 
2743.001323  	103.920685 
2744.438202  	103.912940 
2745.875081  	103.935939 
2747.311959  	103.919777 
2748.748838  	103.914520 
2750.185717  	103.939333 
2751.622595  	103.926328 
2753.059474  	103.936854 
2754.496352  	103.932136 
2755.933231  	103.909868 
2757.370110  	103.948665 
2758.806988  	103.944463 
2760.243867  	103.915872 
2761.680746  	103.939466 
2763.117624  	103.934838 
2764.554503  	103.923266 
2765.991382  	103.915754 
2767.428260  	103.900194 
2768.865139  	103.928356 
2770.302018  	103.940042 
2771.738896  	103.927699 
2773.175775  	103.923279 
2774.612653  	103.895613 
2776.049532  	103.904991 
2777.486411  	103.922830 
2778.923289  	103.894972 
2780.360168  	103.902442 
2781.797047  	103.916177 
2783.233925  	103.910985 
2784.670804  	103.922245 
2786.107683  	103.896089 
2787.544561  	103.856548 
2788.981440  	103.845336 
2790.418318  	103.834974 
2791.855197  	103.830431 
2793.292076  	103.825193 
2794.728954  	103.820966 
2796.165833  	103.800708 
2797.602712  	103.762479 
2799.039590  	103.767872 
2800.476469  	103.760568 
2801.913348  	103.717822 
2803.350226  	103.706943 
2804.787105  	103.663409 
2806.223984  	103.611095 
2807.660862  	103.624283 
2809.097741  	103.623415 
2810.534619  	103.592457 
2811.971498  	103.541942 
2813.408377  	103.477605 
2814.845255  	103.454890 
2816.282134  	103.433984 
2817.719013  	103.407875 
2819.155891  	103.396752 
2820.592770  	103.356100 
2822.029649  	103.318429 
2823.466527  	103.266788 
2824.903406  	103.177967 
2826.340284  	103.120584 
2827.777163  	103.057025 
2829.214042  	102.972567 
2830.650920  	102.880851 
2832.087799  	102.737084 
2833.524678  	102.606088 
2834.961556  	102.474732 
2836.398435  	102.276732 
2837.835314  	102.069092 
2839.272192  	101.824381 
2840.709071  	101.553713 
2842.145950  	101.305158 
2843.582828  	100.999795 
2845.019707  	100.666608 
2846.456585  	100.336766 
2847.893464  	99.979244 
2849.330343  	99.651786 
2850.767221  	99.311688 
2852.204100  	98.926935 
2853.640979  	98.537351 
2855.077857  	98.080029 
2856.514736  	97.590634 
2857.951615  	97.135481 
2859.388493  	96.691354 
2860.825372  	96.306308 
2862.262250  	96.001928 
2863.699129  	95.790298 
2865.136008  	95.698670 
2866.572886  	95.647557 
2868.009765  	95.621293 
2869.446644  	95.651630 
2870.883522  	95.695031 
2872.320401  	95.776738 
2873.757280  	95.910079 
2875.194158  	96.056699 
2876.631037  	96.225210 
2878.067916  	96.396287 
2879.504794  	96.578858 
2880.941673  	96.775005 
2882.378551  	96.905688 
2883.815430  	96.975520 
2885.252309  	97.009651 
2886.689187  	96.982566 
2888.126066  	96.895682 
2889.562945  	96.763670 
2890.999823  	96.637239 
2892.436702  	96.496461 
2893.873581  	96.304362 
2895.310459  	96.148104 
2896.747338  	96.012201 
2898.184216  	95.844486 
2899.621095  	95.686138 
2901.057974  	95.501792 
2902.494852  	95.317636 
2903.931731  	95.166761 
2905.368610  	94.950965 
2906.805488  	94.701077 
2908.242367  	94.474204 
2909.679246  	94.238600 
2911.116124  	94.017555 
2912.553003  	93.781557 
2913.989882  	93.505073 
2915.426760  	93.216979 
2916.863639  	92.888270 
2918.300517  	92.533858 
2919.737396  	92.164389 
2921.174275  	91.766819 
2922.611153  	91.379828 
2924.048032  	90.957965 
2925.484911  	90.493766 
2926.921789  	90.091658 
2928.358668  	89.751453 
2929.795547  	89.435738 
2931.232425  	89.144623 
2932.669304  	88.857225 
2934.106182  	88.582437 
2935.543061  	88.319870 
2936.979940  	88.050573 
2938.416818  	87.802947 
2939.853697  	87.596181 
2941.290576  	87.415884 
2942.727454  	87.254598 
2944.164333  	87.127685 
2945.601212  	87.064022 
2947.038090  	87.065467 
2948.474969  	87.121092 
2949.911847  	87.237491 
2951.348726  	87.418898 
2952.785605  	87.678619 
2954.222483  	88.016607 
2955.659362  	88.411662 
2957.096241  	88.884858 
2958.533119  	89.414381 
2959.969998  	89.944897 
2961.406877  	90.512494 
2962.843755  	91.101377 
2964.280634  	91.674723 
2965.717513  	92.280496 
2967.154391  	92.892245 
2968.591270  	93.490742 
2970.028148  	94.087826 
2971.465027  	94.635529 
2972.901906  	95.164659 
2974.338784  	95.685636 
2975.775663  	96.152867 
2977.212542  	96.595478 
2978.649420  	97.018628 
2980.086299  	97.430941 
2981.523178  	97.842761 
2982.960056  	98.239772 
2984.396935  	98.654909 
2985.833813  	99.039648 
2987.270692  	99.362812 
2988.707571  	99.681577 
2990.144449  	99.969399 
2991.581328  	100.250470 
2993.018207  	100.519382 
2994.455085  	100.701234 
2995.891964  	100.907888 
2997.328843  	101.171887 
2998.765721  	101.395542 
3000.202600  	101.606632 
3001.639479  	101.815030 
3003.076357  	102.027975 
3004.513236  	102.236682 
3005.950114  	102.398809 
3007.386993  	102.590412 
3008.823872  	102.776431 
3010.260750  	102.875495 
3011.697629  	102.958708 
3013.134508  	103.041388 
3014.571386  	103.159268 
3016.008265  	103.302074 
3017.445144  	103.369517 
3018.882022  	103.439548 
3020.318901  	103.507541 
3021.755779  	103.522861 
3023.192658  	103.607890 
3024.629537  	103.699080 
3026.066415  	103.723271 
3027.503294  	103.764402 
3028.940173  	103.788728 
3030.377051  	103.793533 
3031.813930  	103.795238 
3033.250809  	103.799457 
3034.687687  	103.848493 
3036.124566  	103.839667 
3037.561445  	103.798537 
3038.998323  	103.839142 
3040.435202  	103.860332 
3041.872080  	103.867362 
3043.308959  	103.898842 
3044.745838  	103.909678 
3046.182716  	103.952177 
3047.619595  	103.952898 
3049.056474  	103.897919 
3050.493352  	103.917048 
3051.930231  	103.943334 
3053.367110  	103.967073 
3054.803988  	103.996593 
3056.240867  	103.950515 
3057.677745  	103.931757 
3059.114624  	103.945095 
3060.551503  	103.933064 
3061.988381  	103.971093 
3063.425260  	103.985128 
3064.862139  	103.979915 
3066.299017  	104.030059 
3067.735896  	104.032807 
3069.172775  	104.034229 
3070.609653  	104.088567 
3072.046532  	104.115039 
3073.483411  	104.129113 
3074.920289  	104.138243 
3076.357168  	104.169203 
3077.794046  	104.227231 
3079.230925  	104.230889 
3080.667804  	104.220787 
3082.104682  	104.208329 
3083.541561  	104.190314 
3084.978440  	104.230923 
3086.415318  	104.239206 
3087.852197  	104.217259 
3089.289076  	104.245743 
3090.725954  	104.249626 
3092.162833  	104.267241 
3093.599711  	104.306062 
3095.036590  	104.276771 
3096.473469  	104.246374 
3097.910347  	104.233864 
3099.347226  	104.219562 
3100.784105  	104.202208 
3102.220983  	104.148450 
3103.657862  	104.159739 
3105.094741  	104.230082 
3106.531619  	104.263178 
3107.968498  	104.308842 
3109.405377  	104.328767 
3110.842255  	104.332621 
3112.279134  	104.375505 
3113.716012  	104.364900 
3115.152891  	104.368255 
3116.589770  	104.400079 
3118.026648  	104.363791 
3119.463527  	104.389955 
3120.900406  	104.435401 
3122.337284  	104.398898 
3123.774163  	104.412792 
3125.211042  	104.434401 
3126.647920  	104.422533 
3128.084799  	104.447604 
3129.521677  	104.460922 
3130.958556  	104.477557 
3132.395435  	104.482562 
3133.832313  	104.438103 
3135.269192  	104.423677 
3136.706071  	104.420768 
3138.142949  	104.426286 
3139.579828  	104.451126 
3141.016707  	104.423418 
3142.453585  	104.396117 
3143.890464  	104.388288 
3145.327343  	104.374645 
3146.764221  	104.419225 
3148.201100  	104.473411 
3149.637978  	104.485921 
3151.074857  	104.464088 
3152.511736  	104.421279 
3153.948614  	104.441297 
3155.385493  	104.462300 
3156.822372  	104.437467 
3158.259250  	104.452648 
3159.696129  	104.427873 
3161.133008  	104.368550 
3162.569886  	104.366843 
3164.006765  	104.363821 
3165.443643  	104.385418 
3166.880522  	104.407165 
3168.317401  	104.362545 
3169.754279  	104.352369 
3171.191158  	104.376953 
3172.628037  	104.407829 
3174.064915  	104.437509 
3175.501794  	104.391621 
3176.938673  	104.340358 
3178.375551  	104.302441 
3179.812430  	104.268491 
3181.249309  	104.334147 
3182.686187  	104.372916 
3184.123066  	104.319734 
3185.559944  	104.299606 
3186.996823  	104.302374 
3188.433702  	104.348067 
3189.870580  	104.385641 
3191.307459  	104.337682 
3192.744338  	104.337554 
3194.181216  	104.351631 
3195.618095  	104.329956 
3197.054974  	104.344695 
3198.491852  	104.296111 
3199.928731  	104.253140 
3201.365609  	104.301181 
3202.802488  	104.289091 
3204.239367  	104.261507 
3205.676245  	104.271606 
3207.113124  	104.270586 
3208.550003  	104.276220 
3209.986881  	104.223001 
3211.423760  	104.193562 
3212.860639  	104.256573 
3214.297517  	104.221656 
3215.734396  	104.134227 
3217.171274  	104.140650 
3218.608153  	104.171649 
3220.045032  	104.178969 
3221.481910  	104.157495 
3222.918789  	104.160228 
3224.355668  	104.180790 
3225.792546  	104.145563 
3227.229425  	104.120889 
3228.666304  	104.099643 
3230.103182  	104.074998 
3231.540061  	104.108935 
3232.976940  	104.070022 
3234.413818  	103.985848 
3235.850697  	103.985988 
3237.287575  	103.975994 
3238.724454  	103.979060 
3240.161333  	104.002019 
3241.598211  	103.969859 
3243.035090  	103.967020 
3244.471969  	103.941776 
3245.908847  	103.854005 
3247.345726  	103.824663 
3248.782605  	103.829745 
3250.219483  	103.847814 
3251.656362  	103.838883 
3253.093240  	103.765059 
3254.530119  	103.735330 
3255.966998  	103.710213 
3257.403876  	103.655684 
3258.840755  	103.641650 
3260.277634  	103.616648 
3261.714512  	103.637441 
3263.151391  	103.678352 
3264.588270  	103.606952 
3266.025148  	103.584855 
3267.462027  	103.633158 
3268.898906  	103.606464 
3270.335784  	103.598425 
3271.772663  	103.612429 
3273.209541  	103.563555 
3274.646420  	103.485162 
3276.083299  	103.423019 
3277.520177  	103.409059 
3278.957056  	103.394705 
3280.393935  	103.384557 
3281.830813  	103.403438 
3283.267692  	103.354675 
3284.704571  	103.318321 
3286.141449  	103.353630 
3287.578328  	103.325355 
3289.015206  	103.281868 
3290.452085  	103.263396 
3291.888964  	103.232701 
3293.325842  	103.222095 
3294.762721  	103.161049 
3296.199600  	103.099576 
3297.636478  	103.101994 
3299.073357  	103.057360 
3300.510236  	103.053484 
3301.947114  	103.095678 
3303.383993  	103.014416 
3304.820872  	102.940955 
3306.257750  	102.972011 
3307.694629  	102.977337 
3309.131507  	102.909785 
3310.568386  	102.831659 
3312.005265  	102.836012 
3313.442143  	102.839498 
3314.879022  	102.758239 
3316.315901  	102.728078 
3317.752779  	102.717466 
3319.189658  	102.643139 
3320.626537  	102.600693 
3322.063415  	102.583882 
3323.500294  	102.566228 
3324.937172  	102.540066 
3326.374051  	102.457977 
3327.810930  	102.397128 
3329.247808  	102.399689 
3330.684687  	102.408833 
3332.121566  	102.393097 
3333.558444  	102.333030 
3334.995323  	102.259303 
3336.432202  	102.169670 
3337.869080  	102.097748 
3339.305959  	102.116236 
3340.742838  	102.112025 
3342.179716  	102.062001 
3343.616595  	102.038896 
3345.053473  	101.975950 
3346.490352  	101.946931 
3347.927231  	101.971904 
3349.364109  	101.934424 
3350.800988  	101.935119 
3352.237867  	101.941645 
3353.674745  	101.834302 
3355.111624  	101.728824 
3356.548503  	101.660795 
3357.985381  	101.652158 
3359.422260  	101.680197 
3360.859138  	101.599279 
3362.296017  	101.525861 
3363.732896  	101.533076 
3365.169774  	101.515353 
3366.606653  	101.524330 
3368.043532  	101.498706 
3369.480410  	101.433912 
3370.917289  	101.465209 
3372.354168  	101.474451 
3373.791046  	101.447351 
3375.227925  	101.463540 
3376.664804  	101.439477 
3378.101682  	101.448986 
3379.538561  	101.500731 
3380.975439  	101.500923 
3382.412318  	101.525068 
3383.849197  	101.542261 
3385.286075  	101.565648 
3386.722954  	101.679568 
3388.159833  	101.769933 
3389.596711  	101.861277 
3391.033590  	101.958614 
3392.470469  	101.922015 
3393.907347  	101.906546 
3395.344226  	102.033623 
3396.781104  	102.140265 
3398.217983  	102.199637 
3399.654862  	102.290248 
3401.091740  	102.406858 
3402.528619  	102.471587 
3403.965498  	102.497915 
3405.402376  	102.576325 
3406.839255  	102.662478 
3408.276134  	102.755628 
3409.713012  	102.872063 
3411.149891  	102.907349 
3412.586770  	102.925308 
3414.023648  	102.994434 
3415.460527  	103.030495 
3416.897405  	103.073211 
3418.334284  	103.151348 
3419.771163  	103.191491 
3421.208041  	103.156525 
3422.644920  	103.100921 
3424.081799  	103.150172 
3425.518677  	103.234578 
3426.955556  	103.256104 
3428.392435  	103.338734 
3429.829313  	103.455502 
3431.266192  	103.490667 
3432.703070  	103.517760 
3434.139949  	103.552222 
3435.576828  	103.583855 
3437.013706  	103.613848 
3438.450585  	103.588016 
3439.887464  	103.564188 
3441.324342  	103.548469 
3442.761221  	103.490540 
3444.198100  	103.519072 
3445.634978  	103.584681 
3447.071857  	103.480375 
3448.508736  	103.408388 
3449.945614  	103.630497 
3451.382493  	103.838157 
3452.819371  	103.788036 
3454.256250  	103.731671 
3455.693129  	103.829663 
3457.130007  	103.889456 
3458.566886  	103.878812 
3460.003765  	103.864452 
3461.440643  	103.839696 
3462.877522  	103.862080 
3464.314401  	103.895770 
3465.751279  	103.876547 
3467.188158  	103.896065 
3468.625036  	104.023180 
3470.061915  	104.177052 
3471.498794  	104.223193 
3472.935672  	104.186339 
3474.372551  	104.189618 
3475.809430  	104.194763 
3477.246308  	104.253398 
3478.683187  	104.388705 
3480.120066  	104.336451 
3481.556944  	104.109290 
3482.993823  	104.051759 
3484.430701  	104.198197 
3485.867580  	104.314959 
3487.304459  	104.262321 
3488.741337  	104.198265 
3490.178216  	104.326511 
3491.615095  	104.427706 
3493.051973  	104.416110 
3494.488852  	104.452160 
3495.925731  	104.456818 
3497.362609  	104.441816 
3498.799488  	104.539062 
3500.236367  	104.581846 
3501.673245  	104.429326 
3503.110124  	104.184529 
3504.547002  	104.135562 
3505.983881  	104.368546 
3507.420760  	104.531272 
3508.857638  	104.418480 
3510.294517  	104.246493 
3511.731396  	104.300005 
3513.168274  	104.421472 
3514.605153  	104.468282 
3516.042032  	104.578336 
3517.478910  	104.730805 
3518.915789  	104.770321 
3520.352667  	104.814716 
3521.789546  	104.789715 
3523.226425  	104.457842 
3524.663303  	104.249732 
3526.100182  	104.418795 
3527.537061  	104.439724 
3528.973939  	104.350686 
3530.410818  	104.432297 
3531.847697  	104.533142 
3533.284575  	104.700861 
3534.721454  	104.849559 
3536.158333  	104.719930 
3537.595211  	104.620381 
3539.032090  	104.865536 
3540.468968  	105.126192 
3541.905847  	105.248610 
3543.342726  	105.279462 
3544.779604  	105.121292 
3546.216483  	104.827235 
3547.653362  	104.740265 
3549.090240  	104.863440 
3550.527119  	105.026568 
3551.963998  	105.049571 
3553.400876  	104.803046 
3554.837755  	104.733171 
3556.274633  	104.960150 
3557.711512  	105.239489 
3559.148391  	105.439239 
3560.585269  	105.526003 
3562.022148  	105.577865 
3563.459027  	105.639892 
3564.895905  	105.630123 
3566.332784  	105.510824 
3567.769663  	105.090686 
3569.206541  	104.808749 
3570.643420  	104.836415 
3572.080299  	104.982912 
3573.517177  	105.102614 
3574.954056  	105.206412 
3576.390934  	105.293413 
3577.827813  	105.308518 
3579.264692  	105.296834 
3580.701570  	105.388700 
3582.138449  	105.587728 
3583.575328  	105.717251 
3585.012206  	105.851756 
3586.449085  	106.048818 
3587.885964  	105.737849 
3589.322842  	105.263373 
3590.759721  	105.257897 
3592.196599  	105.356226 
3593.633478  	105.418089 
3595.070357  	105.380680 
3596.507235  	105.314250 
3597.944114  	105.336105 
3599.380993  	105.427453 
3600.817871  	105.527979 
3602.254750  	105.652673 
3603.691629  	105.787032 
3605.128507  	105.877446 
3606.565386  	105.922548 
3608.002265  	105.922565 
3609.439143  	105.851336 
3610.876022  	105.808509 
3612.312900  	105.814048 
3613.749779  	105.516332 
3615.186658  	105.220005 
3616.623536  	105.458316 
3618.060415  	105.681826 
3619.497294  	105.342802 
3620.934172  	105.172728 
3622.371051  	105.566482 
3623.807930  	105.988183 
3625.244808  	106.096038 
3626.681687  	106.138305 
3628.118565  	106.620711 
3629.555444  	105.953882 
3630.992323  	105.037126 
3632.429201  	105.310763 
3633.866080  	105.450912 
3635.302959  	105.068793 
3636.739837  	105.062403 
3638.176716  	105.289409 
3639.613595  	105.470975 
3641.050473  	105.875903 
3642.487352  	106.263974 
3643.924231  	106.397428 
3645.361109  	106.684522 
3646.797988  	107.061651 
3648.234866  	106.885269 
3649.671745  	106.703773 
3651.108624  	106.172506 
3652.545502  	105.613689 
3653.982381  	105.695651 
3655.419260  	105.947274 
3656.856138  	105.675606 
3658.293017  	105.668379 
3659.729896  	105.947386 
3661.166774  	106.092910 
3662.603653  	106.338292 
3664.040531  	106.607529 
3665.477410  	106.634471 
3666.914289  	106.796183 
3668.351167  	107.240070 
3669.788046  	107.631508 
3671.224925  	107.096959 
3672.661803  	106.706524 
3674.098682  	106.842592 
3675.535561  	106.499504 
3676.972439  	105.511547 
3678.409318  	106.050733 
3679.846197  	106.212800 
3681.283075  	106.098992 
3682.719954  	106.388392 
3684.156832  	106.777155 
3685.593711  	106.874637 
3687.030590  	107.164623 
3688.467468  	107.539117 
3689.904347  	106.975373 
3691.341226  	106.615865 
3692.778104  	106.316467 
3694.214983  	106.115705 
3695.651862  	106.167773 
3697.088740  	106.220532 
3698.525619  	106.278473 
3699.962497  	106.520849 
3701.399376  	106.734807 
3702.836255  	106.679500 
3704.273133  	106.675646 
3705.710012  	106.806962 
3707.146891  	106.987967 
3708.583769  	107.250054 
3710.020648  	107.515008 
3711.457527  	107.186030 
3712.894405  	106.729115 
3714.331284  	106.501103 
3715.768163  	106.535521 
3717.205041  	106.858196 
3718.641920  	106.983637 
3720.078798  	106.773061 
3721.515677  	106.788063 
3722.952556  	106.820695 
3724.389434  	106.889564 
3725.826313  	107.247676 
3727.263192  	107.212313 
3728.700070  	106.866671 
3730.136949  	107.049418 
3731.573828  	107.552708 
3733.010706  	107.690642 
3734.447585  	107.497173 
3735.884463  	106.967216 
3737.321342  	106.316418 
3738.758221  	106.494691 
3740.195099  	106.751913 
3741.631978  	106.962786 
3743.068857  	107.428946 
3744.505735  	107.814590 
3745.942614  	106.806239 
3747.379493  	106.929036 
3748.816371  	107.425318 
3750.253250  	107.198600 
3751.690129  	106.457438 
3753.127007  	106.169222 
3754.563886  	106.252201 
3756.000764  	106.502827 
3757.437643  	106.602299 
3758.874522  	106.498594 
3760.311400  	106.516922 
3761.748279  	106.460344 
3763.185158  	106.575196 
3764.622036  	106.905467 
3766.058915  	106.831627 
3767.495794  	106.661152 
3768.932672  	106.781224 
3770.369551  	106.583532 
3771.806429  	106.517996 
3773.243308  	106.853390 
3774.680187  	107.043539 
3776.117065  	106.973438 
3777.553944  	106.998986 
3778.990823  	107.150171 
3780.427701  	106.965468 
3781.864580  	106.876004 
3783.301459  	107.093845 
3784.738337  	107.046818 
3786.175216  	106.670217 
3787.612094  	106.698010 
3789.048973  	106.939265 
3790.485852  	107.185531 
3791.922730  	107.323579 
3793.359609  	107.434952 
3794.796488  	107.640812 
3796.233366  	107.936113 
3797.670245  	107.733323 
3799.107124  	107.726891 
3800.544002  	108.257206 
3801.980881  	108.048645 
3803.417760  	106.949098 
3804.854638  	106.962115 
3806.291517  	107.455738 
3807.728395  	107.296933 
3809.165274  	106.965163 
3810.602153  	107.190962 
3812.039031  	107.406593 
3813.475910  	107.497450 
3814.912789  	107.842169 
3816.349667  	107.989725 
3817.786546  	107.663529 
3819.223425  	107.711848 
3820.660303  	107.925465 
3822.097182  	107.391078 
3823.534060  	106.986658 
3824.970939  	106.995220 
3826.407818  	107.185804 
3827.844696  	107.281870 
3829.281575  	107.397844 
3830.718454  	107.625188 
3832.155332  	107.691100 
3833.592211  	107.616893 
3835.029090  	107.768831 
3836.465968  	108.112624 
3837.902847  	108.141168 
3839.339726  	107.394478 
3840.776604  	106.919680 
3842.213483  	107.165380 
3843.650361  	107.273696 
3845.087240  	107.181641 
3846.524119  	107.315717 
3847.960997  	107.521801 
3849.397876  	107.549892 
3850.834755  	107.707599 
3852.271633  	108.383618 
3853.708512  	107.926473 
3855.145391  	106.960887 
3856.582269  	107.175458 
3858.019148  	107.211148 
3859.456026  	107.195018 
3860.892905  	107.380518 
3862.329784  	107.409609 
3863.766662  	107.305231 
3865.203541  	107.249775 
3866.640420  	107.223252 
3868.077298  	107.467334 
3869.514177  	107.606531 
3870.951056  	106.775846 
3872.387934  	106.885948 
3873.824813  	107.254705 
3875.261692  	107.197765 
3876.698570  	107.199461 
3878.135449  	107.365123 
3879.572327  	107.470278 
3881.009206  	107.115714 
3882.446085  	106.897537 
3883.882963  	107.142449 
3885.319842  	107.437487 
3886.756721  	106.878378 
3888.193599  	106.554735 
3889.630478  	106.939528 
3891.067357  	107.399965 
3892.504235  	107.053782 
3893.941114  	106.810913 
3895.377992  	107.125295 
3896.814871  	107.429238 
3898.251750  	107.534298 
3899.688628  	107.571582 
3901.125507  	107.570308 
3902.562386  	107.385294 
3903.999264  	106.783893 
3905.436143  	106.325254 
3906.873022  	106.615132 
3908.309900  	106.799353 
3909.746779  	106.789277 
3911.183658  	106.900317 
3912.620536  	106.992747 
3914.057415  	107.190547 
3915.494293  	107.371069 
3916.931172  	107.222035 
3918.368051  	107.010920 
3919.804929  	107.163698 
3921.241808  	107.243843 
3922.678687  	107.168528 
3924.115565  	107.112763 
3925.552444  	107.019941 
3926.989323  	107.034365 
3928.426201  	107.132445 
3929.863080  	107.173515 
3931.299958  	107.157824 
3932.736837  	107.050852 
3934.173716  	106.931312 
3935.610594  	107.029054 
3937.047473  	107.213340 
3938.484352  	107.299747 
3939.921230  	107.352504 
3941.358109  	107.427382 
3942.794988  	107.246555 
3944.231866  	107.053712 
3945.668745  	107.232249 
3947.105624  	107.303599 
3948.542502  	107.098961 
3949.979381  	106.995634 
3951.416259  	107.012844 
3952.853138  	107.083609 
3954.290017  	107.251304 
3955.726895  	107.297868 
3957.163774  	107.206410 
3958.600653  	107.198928 
3960.037531  	107.257768 
3961.474410  	107.171685 
3962.911289  	107.113324 
3964.348167  	107.254525 
3965.785046  	107.391628 
3967.221924  	107.354377 
3968.658803  	107.297053 
3970.095682  	107.319611 
3971.532560  	107.379834 
3972.969439  	107.418560 
3974.406318  	107.314810 
3975.843196  	107.191978 
3977.280075  	107.237939 
3978.716954  	107.334779 
3980.153832  	107.384434 
3981.590711  	107.370019 
3983.027590  	107.366633 
3984.464468  	107.474595 
3985.901347  	107.542348 
3987.338225  	107.538383 
3988.775104  	107.546040 
3990.211983  	107.459738 
3991.648861  	107.373614 
3993.085740  	107.393834 
3994.522619  	107.369857 
3995.959497  	107.374578 
3997.396376  	107.490029 
3998.833255  	107.564435 
4000.270133  	107.554855 