x               y
399.452262  	100.149648 
400.889141  	99.595258 
402.326019  	100.255839 
403.762898  	101.058157 
405.199776  	101.082583 
406.636655  	100.336610 
408.073534  	99.378783 
409.510412  	99.061236 
410.947291  	99.965008 
412.384170  	100.691259 
413.821048  	99.740520 
415.257927  	98.757824 
416.694806  	98.351998 
418.131684  	98.896956 
419.568563  	100.133538 
421.005441  	98.660520 
422.442320  	98.920384 
423.879199  	100.917032 
425.316077  	100.737002 
426.752956  	100.431854 
428.189835  	101.508643 
429.626713  	101.738382 
431.063592  	101.376153 
432.500471  	101.101266 
433.937349  	100.510476 
435.374228  	99.678683 
436.811106  	98.389195 
438.247985  	97.966096 
439.684864  	98.519815 
441.121742  	98.749808 
442.558621  	99.443400 
443.995500  	99.884928 
445.432378  	99.017783 
446.869257  	98.897423 
448.306136  	99.709495 
449.743014  	100.224446 
451.179893  	100.537564 
452.616772  	99.905317 
454.053650  	99.007880 
455.490529  	99.202716 
456.927407  	99.555220 
458.364286  	99.945165 
459.801165  	100.590693 
461.238043  	100.882732 
462.674922  	101.057189 
464.111801  	101.256760 
465.548679  	101.241211 
466.985558  	101.042968 
468.422437  	100.874118 
469.859315  	100.570946 
471.296194  	99.818175 
472.733072  	99.590990 
474.169951  	100.456586 
475.606830  	100.511068 
477.043708  	99.990327 
478.480587  	100.099531 
479.917466  	100.407056 
481.354344  	100.322183 
482.791223  	100.028616 
484.228102  	99.864826 
485.664980  	100.132454 
487.101859  	100.346063 
488.538738  	100.273467 
489.975616  	100.502949 
491.412495  	100.827161 
492.849373  	100.604228 
494.286252  	100.357525 
495.723131  	100.513674 
497.160009  	100.435789 
498.596888  	100.019282 
500.033767  	100.018775 
501.470645  	100.279012 
502.907524  	99.927384 
504.344403  	99.548926 
505.781281  	99.856426 
507.218160  	100.350444 
508.655038  	100.429668 
510.091917  	100.404375 
511.528796  	100.429556 
512.965674  	100.331387 
514.402553  	100.444127 
515.839432  	100.875886 
517.276310  	100.830348 
518.713189  	100.348223 
520.150068  	100.385235 
521.586946  	100.631421 
523.023825  	100.624409 
524.460704  	100.504914 
525.897582  	100.337176 
527.334461  	100.319963 
528.771339  	100.293929 
530.208218  	100.033773 
531.645097  	100.121186 
533.081975  	100.626055 
534.518854  	100.705806 
535.955733  	100.419473 
537.392611  	100.314159 
538.829490  	100.164695 
540.266369  	99.906406 
541.703247  	99.953440 
543.140126  	100.239100 
544.577004  	100.313493 
546.013883  	100.228454 
547.450762  	100.331052 
548.887640  	100.516565 
550.324519  	100.573548 
551.761398  	100.524069 
553.198276  	100.434093 
554.635155  	100.384012 
556.072034  	100.455963 
557.508912  	100.622312 
558.945791  	100.681322 
560.382670  	100.486089 
561.819548  	100.395076 
563.256427  	100.530819 
564.693305  	100.402626 
566.130184  	100.094236 
567.567063  	100.034086 
569.003941  	100.090000 
570.440820  	100.192329 
571.877699  	100.333682 
573.314577  	100.305533 
574.751456  	100.291768 
576.188335  	100.395514 
577.625213  	100.328686 
579.062092  	100.256607 
580.498970  	100.375970 
581.935849  	100.426081 
583.372728  	100.366036 
584.809606  	100.394395 
586.246485  	100.445915 
587.683364  	100.403209 
589.120242  	100.339017 
590.557121  	100.302933 
591.994000  	100.272461 
593.430878  	100.315140 
594.867757  	100.339466 
596.304636  	100.190198 
597.741514  	100.135533 
599.178393  	100.326421 
600.615271  	100.423138 
602.052150  	100.443844 
603.489029  	100.569486 
604.925907  	100.553607 
606.362786  	100.378147 
607.799665  	100.281314 
609.236543  	100.225554 
610.673422  	100.210766 
612.110301  	100.241672 
613.547179  	100.275099 
614.984058  	100.324606 
616.420936  	100.354141 
617.857815  	100.322434 
619.294694  	100.334148 
620.731572  	100.372769 
622.168451  	100.355876 
623.605330  	100.308624 
625.042208  	100.341723 
626.479087  	100.386798 
627.915966  	100.347179 
629.352844  	100.346882 
630.789723  	100.424149 
632.226602  	100.402017 
633.663480  	100.405546 
635.100359  	100.453511 
636.537237  	100.433358 
637.974116  	100.423595 
639.410995  	100.437373 
640.847873  	100.384057 
642.284752  	100.329269 
643.721631  	100.330938 
645.158509  	100.356244 
646.595388  	100.397188 
648.032267  	100.433910 
649.469145  	100.430713 
650.906024  	100.411002 
652.342902  	100.373704 
653.779781  	100.343214 
655.216660  	100.305014 
656.653538  	100.291381 
658.090417  	100.365295 
659.527296  	100.392480 
660.964174  	100.379370 
662.401053  	100.440526 
663.837932  	100.506290 
665.274810  	100.483349 
666.711689  	100.485300 
668.148568  	100.470178 
669.585446  	100.413891 
671.022325  	100.417207 
672.459203  	100.450378 
673.896082  	100.459741 
675.332961  	100.443024 
676.769839  	100.415433 
678.206718  	100.390655 
679.643597  	100.393964 
681.080475  	100.403039 
682.517354  	100.351780 
683.954233  	100.291310 
685.391111  	100.280543 
686.827990  	100.254640 
688.264868  	100.249192 
689.701747  	100.298960 
691.138626  	100.280030 
692.575504  	100.265815 
694.012383  	100.345942 
695.449262  	100.382897 
696.886140  	100.390564 
698.323019  	100.410160 
699.759898  	100.432511 
701.196776  	100.442260 
702.633655  	100.462352 
704.070533  	100.426956 
705.507412  	100.358597 
706.944291  	100.362014 
708.381169  	100.439358 
709.818048  	100.488619 
711.254927  	100.464571 
712.691805  	100.392858 
714.128684  	100.335476 
715.565563  	100.369851 
717.002441  	100.451866 
718.439320  	100.458012 
719.876199  	100.453810 
721.313077  	100.498958 
722.749956  	100.555101 
724.186834  	100.562993 
725.623713  	100.477906 
727.060592  	100.369938 
728.497470  	100.319630 
729.934349  	100.352384 
731.371228  	100.405845 
732.808106  	100.397857 
734.244985  	100.373325 
735.681864  	100.415320 
737.118742  	100.417974 
738.555621  	100.334831 
739.992499  	100.336050 
741.429378  	100.418108 
742.866257  	100.457331 
744.303135  	100.475013 
745.740014  	100.440387 
747.176893  	100.359104 
748.613771  	100.380609 
750.050650  	100.457411 
751.487529  	100.435263 
752.924407  	100.355653 
754.361286  	100.298477 
755.798165  	100.274820 
757.235043  	100.277609 
758.671922  	100.288298 
760.108800  	100.333692 
761.545679  	100.401567 
762.982558  	100.422657 
764.419436  	100.451053 
765.856315  	100.521220 
767.293194  	100.505825 
768.730072  	100.396268 
770.166951  	100.337585 
771.603830  	100.367100 
773.040708  	100.412575 
774.477587  	100.407585 
775.914465  	100.351853 
777.351344  	100.322970 
778.788223  	100.355577 
780.225101  	100.396414 
781.661980  	100.411077 
783.098859  	100.409858 
784.535737  	100.388533 
785.972616  	100.318840 
787.409495  	100.239511 
788.846373  	100.252473 
790.283252  	100.360940 
791.720131  	100.468071 
793.157009  	100.519345 
794.593888  	100.512971 
796.030766  	100.466436 
797.467645  	100.412998 
798.904524  	100.380196 
800.341402  	100.372753 
801.778281  	100.374483 
803.215160  	100.375069 
804.652038  	100.363787 
806.088917  	100.339932 
807.525796  	100.358428 
808.962674  	100.402119 
810.399553  	100.381789 
811.836431  	100.363827 
813.273310  	100.383797 
814.710189  	100.316654 
816.147067  	100.280144 
817.583946  	100.455283 
819.020825  	100.591020 
820.457703  	100.481526 
821.894582  	100.356155 
823.331461  	100.361215 
824.768339  	100.389494 
826.205218  	100.381215 
827.642097  	100.357054 
829.078975  	100.358668 
830.515854  	100.379421 
831.952732  	100.372604 
833.389611  	100.383246 
834.826490  	100.403701 
836.263368  	100.362093 
837.700247  	100.359928 
839.137126  	100.436459 
840.574004  	100.468295 
842.010883  	100.464389 
843.447762  	100.430762 
844.884640  	100.346640 
846.321519  	100.338319 
847.758397  	100.408720 
849.195276  	100.453118 
850.632155  	100.464144 
852.069033  	100.404130 
853.505912  	100.329796 
854.942791  	100.360711 
856.379669  	100.416172 
857.816548  	100.446266 
859.253427  	100.483207 
860.690305  	100.471489 
862.127184  	100.423344 
863.564063  	100.397957 
865.000941  	100.419094 
866.437820  	100.472198 
867.874698  	100.455388 
869.311577  	100.398326 
870.748456  	100.401771 
872.185334  	100.406560 
873.622213  	100.422078 
875.059092  	100.457564 
876.495970  	100.433229 
877.932849  	100.449455 
879.369728  	100.488792 
880.806606  	100.396444 
882.243485  	100.329028 
883.680363  	100.380075 
885.117242  	100.409496 
886.554121  	100.432269 
887.990999  	100.450441 
889.427878  	100.425549 
890.864757  	100.439427 
892.301635  	100.458279 
893.738514  	100.420346 
895.175393  	100.399920 
896.612271  	100.411098 
898.049150  	100.429019 
899.486029  	100.448105 
900.922907  	100.436798 
902.359786  	100.434191 
903.796664  	100.466568 
905.233543  	100.454499 
906.670422  	100.400633 
908.107300  	100.384941 
909.544179  	100.397568 
910.981058  	100.416172 
912.417936  	100.437728 
913.854815  	100.410992 
915.291694  	100.371629 
916.728572  	100.403549 
918.165451  	100.439297 
919.602329  	100.442428 
921.039208  	100.485326 
922.476087  	100.521605 
923.912965  	100.503950 
925.349844  	100.480098 
926.786723  	100.436083 
928.223601  	100.384000 
929.660480  	100.382663 
931.097359  	100.410069 
932.534237  	100.426141 
933.971116  	100.414357 
935.407995  	100.404633 
936.844873  	100.423050 
938.281752  	100.407374 
939.718630  	100.394722 
941.155509  	100.448835 
942.592388  	100.457547 
944.029266  	100.436483 
945.466145  	100.487336 
946.903024  	100.499278 
948.339902  	100.439854 
949.776781  	100.412238 
951.213660  	100.421851 
952.650538  	100.461469 
954.087417  	100.482279 
955.524295  	100.448430 
956.961174  	100.451974 
958.398053  	100.476523 
959.834931  	100.465526 
961.271810  	100.468529 
962.708689  	100.446100 
964.145567  	100.412022 
965.582446  	100.465458 
967.019325  	100.506051 
968.456203  	100.454210 
969.893082  	100.419763 
971.329961  	100.448109 
972.766839  	100.484844 
974.203718  	100.473333 
975.640596  	100.432895 
977.077475  	100.439473 
978.514354  	100.460132 
979.951232  	100.446158 
981.388111  	100.441851 
982.824990  	100.445742 
984.261868  	100.438285 
985.698747  	100.434969 
987.135626  	100.441709 
988.572504  	100.469840 
990.009383  	100.485419 
991.446261  	100.458187 
992.883140  	100.442011 
994.320019  	100.450341 
995.756897  	100.463434 
997.193776  	100.479532 
998.630655  	100.465740 
1000.067533  	100.446554 
1001.504412  	100.455392 
1002.941291  	100.444894 
1004.378169  	100.442880 
1005.815048  	100.477211 
1007.251926  	100.460222 
1008.688805  	100.414116 
1010.125684  	100.434966 
1011.562562  	100.463758 
1012.999441  	100.436981 
1014.436320  	100.411782 
1015.873198  	100.420928 
1017.310077  	100.450683 
1018.746956  	100.481664 
1020.183834  	100.470447 
1021.620713  	100.439381 
1023.057592  	100.443468 
1024.494470  	100.424383 
1025.931349  	100.376897 
1027.368227  	100.391829 
1028.805106  	100.419798 
1030.241985  	100.422568 
1031.678863  	100.463284 
1033.115742  	100.467001 
1034.552621  	100.403512 
1035.989499  	100.386992 
1037.426378  	100.388394 
1038.863257  	100.360522 
1040.300135  	100.367509 
1041.737014  	100.398453 
1043.173892  	100.422533 
1044.610771  	100.432774 
1046.047650  	100.410223 
1047.484528  	100.402434 
1048.921407  	100.410136 
1050.358286  	100.378531 
1051.795164  	100.370642 
1053.232043  	100.403805 
1054.668922  	100.375307 
1056.105800  	100.328652 
1057.542679  	100.368852 
1058.979558  	100.411529 
1060.416436  	100.395861 
1061.853315  	100.423488 
1063.290193  	100.474835 
1064.727072  	100.449547 
1066.163951  	100.422806 
1067.600829  	100.457162 
1069.037708  	100.473525 
1070.474587  	100.440492 
1071.911465  	100.407310 
1073.348344  	100.424737 
1074.785223  	100.470128 
1076.222101  	100.478780 
1077.658980  	100.470116 
1079.095858  	100.463331 
1080.532737  	100.458471 
1081.969616  	100.502196 
1083.406494  	100.531774 
1084.843373  	100.485004 
1086.280252  	100.457078 
1087.717130  	100.470484 
1089.154009  	100.488614 
1090.590888  	100.525188 
1092.027766  	100.536769 
1093.464645  	100.527604 
1094.901524  	100.539355 
1096.338402  	100.522012 
1097.775281  	100.493419 
1099.212159  	100.504940 
1100.649038  	100.500554 
1102.085917  	100.484530 
1103.522795  	100.517184 
1104.959674  	100.554289 
1106.396553  	100.550415 
1107.833431  	100.547417 
1109.270310  	100.555778 
1110.707189  	100.536513 
1112.144067  	100.504644 
1113.580946  	100.482881 
1115.017824  	100.452984 
1116.454703  	100.444810 
1117.891582  	100.482256 
1119.328460  	100.502822 
1120.765339  	100.476665 
1122.202218  	100.449302 
1123.639096  	100.451782 
1125.075975  	100.452457 
1126.512854  	100.429033 
1127.949732  	100.440553 
1129.386611  	100.483820 
1130.823490  	100.480992 
1132.260368  	100.475477 
1133.697247  	100.503679 
1135.134125  	100.489416 
1136.571004  	100.445153 
1138.007883  	100.439272 
1139.444761  	100.455902 
1140.881640  	100.463969 
1142.318519  	100.456176 
1143.755397  	100.441161 
1145.192276  	100.434947 
1146.629155  	100.442694 
1148.066033  	100.460238 
1149.502912  	100.463697 
1150.939790  	100.452584 
1152.376669  	100.451878 
1153.813548  	100.455250 
1155.250426  	100.467953 
1156.687305  	100.482545 
1158.124184  	100.463619 
1159.561062  	100.449113 
1160.997941  	100.461369 
1162.434820  	100.456559 
1163.871698  	100.459895 
1165.308577  	100.481137 
1166.745456  	100.469123 
1168.182334  	100.451826 
1169.619213  	100.459464 
1171.056091  	100.458335 
1172.492970  	100.459181 
1173.929849  	100.483244 
1175.366727  	100.498923 
1176.803606  	100.489187 
1178.240485  	100.473184 
1179.677363  	100.465762 
1181.114242  	100.468368 
1182.551121  	100.459743 
1183.987999  	100.423756 
1185.424878  	100.410708 
1186.861756  	100.447333 
1188.298635  	100.456597 
1189.735514  	100.429561 
1191.172392  	100.436425 
1192.609271  	100.446853 
1194.046150  	100.433764 
1195.483028  	100.446787 
1196.919907  	100.461405 
1198.356786  	100.444791 
1199.793664  	100.438808 
1201.230543  	100.440985 
1202.667422  	100.431247 
1204.104300  	100.439646 
1205.541179  	100.459651 
1206.978057  	100.456807 
1208.414936  	100.443714 
1209.851815  	100.428999 
1211.288693  	100.408975 
1212.725572  	100.422445 
1214.162451  	100.471031 
1215.599329  	100.483682 
1217.036208  	100.449219 
1218.473087  	100.427574 
1219.909965  	100.439992 
1221.346844  	100.460784 
1222.783722  	100.465104 
1224.220601  	100.450950 
1225.657480  	100.440780 
1227.094358  	100.454734 
1228.531237  	100.470938 
1229.968116  	100.453651 
1231.404994  	100.438798 
1232.841873  	100.465571 
1234.278752  	100.474810 
1235.715630  	100.451564 
1237.152509  	100.454309 
1238.589388  	100.456361 
1240.026266  	100.426721 
1241.463145  	100.412863 
1242.900023  	100.431037 
1244.336902  	100.455802 
1245.773781  	100.463035 
1247.210659  	100.459784 
1248.647538  	100.468084 
1250.084417  	100.463013 
1251.521295  	100.445662 
1252.958174  	100.453680 
1254.395053  	100.464546 
1255.831931  	100.466857 
1257.268810  	100.464363 
1258.705688  	100.436152 
1260.142567  	100.429641 
1261.579446  	100.465130 
1263.016324  	100.474188 
1264.453203  	100.463656 
1265.890082  	100.460776 
1267.326960  	100.451369 
1268.763839  	100.458726 
1270.200718  	100.476388 
1271.637596  	100.458014 
1273.074475  	100.419473 
1274.511353  	100.408594 
1275.948232  	100.435946 
1277.385111  	100.469099 
1278.821989  	100.476193 
1280.258868  	100.455534 
1281.695747  	100.417356 
1283.132625  	100.401054 
1284.569504  	100.426241 
1286.006383  	100.443392 
1287.443261  	100.437452 
1288.880140  	100.438697 
1290.317019  	100.441070 
1291.753897  	100.444831 
1293.190776  	100.461317 
1294.627654  	100.471748 
1296.064533  	100.466648 
1297.501412  	100.454075 
1298.938290  	100.439890 
1300.375169  	100.441733 
1301.812048  	100.471407 
1303.248926  	100.496026 
1304.685805  	100.487325 
1306.122684  	100.475647 
1307.559562  	100.476354 
1308.996441  	100.474087 
1310.433319  	100.472561 
1311.870198  	100.466830 
1313.307077  	100.454187 
1314.743955  	100.464046 
1316.180834  	100.462105 
1317.617713  	100.420770 
1319.054591  	100.418581 
1320.491470  	100.462615 
1321.928349  	100.472423 
1323.365227  	100.459218 
1324.802106  	100.450955 
1326.238985  	100.443229 
1327.675863  	100.433863 
1329.112742  	100.439255 
1330.549620  	100.476449 
1331.986499  	100.512116 
1333.423378  	100.507693 
1334.860256  	100.490524 
1336.297135  	100.471781 
1337.734014  	100.445147 
1339.170892  	100.443426 
1340.607771  	100.473387 
1342.044650  	100.485957 
1343.481528  	100.482207 
1344.918407  	100.485476 
1346.355285  	100.498450 
1347.792164  	100.495147 
1349.229043  	100.492454 
1350.665921  	100.496023 
1352.102800  	100.504764 
1353.539679  	100.489775 
1354.976557  	100.483554 
1356.413436  	100.493155 
1357.850315  	100.499337 
1359.287193  	100.496849 
1360.724072  	100.486292 
1362.160951  	100.473230 
1363.597829  	100.476401 
1365.034708  	100.478677 
1366.471586  	100.466383 
1367.908465  	100.470131 
1369.345344  	100.485976 
1370.782222  	100.495863 
1372.219101  	100.485463 
1373.655980  	100.472156 
1375.092858  	100.482183 
1376.529737  	100.469379 
1377.966616  	100.431597 
1379.403494  	100.438578 
1380.840373  	100.483641 
1382.277251  	100.512703 
1383.714130  	100.502678 
1385.151009  	100.475888 
1386.587887  	100.462470 
1388.024766  	100.467466 
1389.461645  	100.465457 
1390.898523  	100.457915 
1392.335402  	100.462236 
1393.772281  	100.503020 
1395.209159  	100.524493 
1396.646038  	100.470366 
1398.082917  	100.417002 
1399.519795  	100.449642 
1400.956674  	100.479263 
1402.393552  	100.466544 
1403.830431  	100.445723 
1405.267310  	100.481416 
1406.704188  	100.501966 
1408.141067  	100.488873 
1409.577946  	100.464514 
1411.014824  	100.453965 
1412.451703  	100.501159 
1413.888582  	100.560632 
1415.325460  	100.541630 
1416.762339  	100.474537 
1418.199217  	100.478330 
1419.636096  	100.507739 
1421.072975  	100.440520 
1422.509853  	100.419085 
1423.946732  	100.489498 
1425.383611  	100.574088 
1426.820489  	100.582307 
1428.257368  	100.566383 
1429.694247  	100.558141 
1431.131125  	100.567183 
1432.568004  	100.554211 
1434.004883  	100.517351 
1435.441761  	100.438535 
1436.878640  	100.339323 
1438.315518  	100.458517 
1439.752397  	100.537842 
1441.189276  	100.514541 
1442.626154  	100.511967 
1444.063033  	100.568576 
1445.499912  	100.593224 
1446.936790  	100.586002 
1448.373669  	100.545593 
1449.810548  	100.488275 
1451.247426  	100.487699 
1452.684305  	100.538633 
1454.121183  	100.570957 
1455.558062  	100.588744 
1456.994941  	100.672605 
1458.431819  	100.661981 
1459.868698  	100.531026 
1461.305577  	100.487051 
1462.742455  	100.506562 
1464.179334  	100.521044 
1465.616213  	100.528384 
1467.053091  	100.521613 
1468.489970  	100.481403 
1469.926849  	100.469080 
1471.363727  	100.522793 
1472.800606  	100.601997 
1474.237484  	100.551479 
1475.674363  	100.461114 
1477.111242  	100.462191 
1478.548120  	100.522524 
1479.984999  	100.517231 
1481.421878  	100.496600 
1482.858756  	100.530620 
1484.295635  	100.540514 
1485.732514  	100.531182 
1487.169392  	100.531137 
1488.606271  	100.508045 
1490.043149  	100.476442 
1491.480028  	100.559176 
1492.916907  	100.602418 
1494.353785  	100.593790 
1495.790664  	100.608634 
1497.227543  	100.646550 
1498.664421  	100.580933 
1500.101300  	100.491884 
1501.538179  	100.494147 
1502.975057  	100.533347 
1504.411936  	100.565300 
1505.848815  	100.581423 
1507.285693  	100.463675 
1508.722572  	100.514237 
1510.159450  	100.551918 
1511.596329  	100.555449 
1513.033208  	100.529538 
1514.470086  	100.529612 
1515.906965  	100.581960 
1517.343844  	100.575866 
1518.780722  	100.451397 
1520.217601  	100.404166 
1521.654480  	100.446329 
1523.091358  	100.463009 
1524.528237  	100.457466 
1525.965115  	100.534531 
1527.401994  	100.602953 
1528.838873  	100.576416 
1530.275751  	100.532314 
1531.712630  	100.521892 
1533.149509  	100.531546 
1534.586387  	100.514344 
1536.023266  	100.497114 
1537.460145  	100.488803 
1538.897023  	100.444933 
1540.333902  	100.509249 
1541.770780  	100.556172 
1543.207659  	100.465595 
1544.644538  	100.460321 
1546.081416  	100.543355 
1547.518295  	100.527681 
1548.955174  	100.459030 
1550.392052  	100.448500 
1551.828931  	100.512590 
1553.265810  	100.517423 
1554.702688  	100.496303 
1556.139567  	100.521164 
1557.576446  	100.553745 
1559.013324  	100.564049 
1560.450203  	100.568573 
1561.887081  	100.491647 
1563.323960  	100.474742 
1564.760839  	100.515850 
1566.197717  	100.526164 
1567.634596  	100.486942 
1569.071475  	100.442713 
1570.508353  	100.430039 
1571.945232  	100.468738 
1573.382111  	100.485481 
1574.818989  	100.493887 
1576.255868  	100.457143 
1577.692746  	100.453458 
1579.129625  	100.477685 
1580.566504  	100.484342 
1582.003382  	100.460590 
1583.440261  	100.464591 
1584.877140  	100.436606 
1586.314018  	100.440438 
1587.750897  	100.436070 
1589.187776  	100.452086 
1590.624654  	100.491628 
1592.061533  	100.501697 
1593.498412  	100.503216 
1594.935290  	100.525267 
1596.372169  	100.551285 
1597.809047  	100.566058 
1599.245926  	100.564442 
1600.682805  	100.533458 
1602.119683  	100.534064 
1603.556562  	100.592320 
1604.993441  	100.614056 
1606.430319  	100.578288 
1607.867198  	100.540666 
1609.304077  	100.544519 
1610.740955  	100.591949 
1612.177834  	100.596885 
1613.614712  	100.560197 
1615.051591  	100.577693 
1616.488470  	100.656500 
1617.925348  	100.650885 
1619.362227  	100.581278 
1620.799106  	100.564051 
1622.235984  	100.591924 
1623.672863  	100.655522 
1625.109742  	100.617942 
1626.546620  	100.554275 
1627.983499  	100.544472 
1629.420378  	100.569104 
1630.857256  	100.574183 
1632.294135  	100.591109 
1633.731013  	100.619368 
1635.167892  	100.675736 
1636.604771  	100.720870 
1638.041649  	100.626434 
1639.478528  	100.544993 
1640.915407  	100.516305 
1642.352285  	100.560722 
1643.789164  	100.607606 
1645.226043  	100.620618 
1646.662921  	100.591873 
1648.099800  	100.523943 
1649.536678  	100.546542 
1650.973557  	100.581972 
1652.410436  	100.584972 
1653.847314  	100.426957 
1655.284193  	100.526716 
1656.721072  	100.552980 
1658.157950  	100.548847 
1659.594829  	100.526202 
1661.031708  	100.516915 
1662.468586  	100.540623 
1663.905465  	100.542611 
1665.342344  	100.529458 
1666.779222  	100.560900 
1668.216101  	100.604988 
1669.652979  	100.623111 
1671.089858  	100.643149 
1672.526737  	100.620115 
1673.963615  	100.581117 
1675.400494  	100.551301 
1676.837373  	100.523348 
1678.274251  	100.506999 
1679.711130  	100.497037 
1681.148009  	100.535273 
1682.584887  	100.608153 
1684.021766  	100.724942 
1685.458644  	100.652685 
1686.895523  	100.554111 
1688.332402  	100.545672 
1689.769280  	100.607436 
1691.206159  	100.647883 
1692.643038  	100.615079 
1694.079916  	100.592893 
1695.516795  	100.590882 
1696.953674  	100.581685 
1698.390552  	100.541634 
1699.827431  	100.484649 
1701.264310  	100.510802 
1702.701188  	100.555661 
1704.138067  	100.577645 
1705.574945  	100.627692 
1707.011824  	100.585160 
1708.448703  	100.537454 
1709.885581  	100.577948 
1711.322460  	100.573019 
1712.759339  	100.494746 
1714.196217  	100.506946 
1715.633096  	100.587007 
1717.069975  	100.538920 
1718.506853  	100.440406 
1719.943732  	100.502076 
1721.380610  	100.524947 
1722.817489  	100.531446 
1724.254368  	100.567341 
1725.691246  	100.556148 
1727.128125  	100.530351 
1728.565004  	100.554272 
1730.001882  	100.565252 
1731.438761  	100.555235 
1732.875640  	100.560908 
1734.312518  	100.561598 
1735.749397  	100.561878 
1737.186276  	100.589049 
1738.623154  	100.601670 
1740.060033  	100.617728 
1741.496911  	100.590031 
1742.933790  	100.548857 
1744.370669  	100.558964 
1745.807547  	100.578218 
1747.244426  	100.563526 
1748.681305  	100.552183 
1750.118183  	100.548588 
1751.555062  	100.532193 
1752.991941  	100.579383 
1754.428819  	100.611350 
1755.865698  	100.616034 
1757.302576  	100.604365 
1758.739455  	100.584085 
1760.176334  	100.573415 
1761.613212  	100.541170 
1763.050091  	100.488785 
1764.486970  	100.510505 
1765.923848  	100.549906 
1767.360727  	100.566270 
1768.797606  	100.589045 
1770.234484  	100.606082 
1771.671363  	100.603395 
1773.108242  	100.557616 
1774.545120  	100.532078 
1775.981999  	100.532758 
1777.418877  	100.534726 
1778.855756  	100.545948 
1780.292635  	100.546786 
1781.729513  	100.549819 
1783.166392  	100.559936 
1784.603271  	100.552118 
1786.040149  	100.545992 
1787.477028  	100.593446 
1788.913907  	100.612273 
1790.350785  	100.591602 
1791.787664  	100.597132 
1793.224542  	100.605482 
1794.661421  	100.569201 
1796.098300  	100.550166 
1797.535178  	100.584553 
1798.972057  	100.624714 
1800.408936  	100.613544 
1801.845814  	100.578158 
1803.282693  	100.581542 
1804.719572  	100.596292 
1806.156450  	100.601927 
1807.593329  	100.607925 
1809.030207  	100.612367 
1810.467086  	100.638129 
1811.903965  	100.666767 
1813.340843  	100.669933 
1814.777722  	100.658029 
1816.214601  	100.630668 
1817.651479  	100.601690 
1819.088358  	100.614853 
1820.525237  	100.639418 
1821.962115  	100.651815 
1823.398994  	100.664460 
1824.835873  	100.683089 
1826.272751  	100.683724 
1827.709630  	100.666696 
1829.146508  	100.661927 
1830.583387  	100.710146 
1832.020266  	100.718724 
1833.457144  	100.671320 
1834.894023  	100.629057 
1836.330902  	100.650479 
1837.767780  	100.697597 
1839.204659  	100.716330 
1840.641538  	100.674750 
1842.078416  	100.637159 
1843.515295  	100.639296 
1844.952173  	100.674138 
1846.389052  	100.642724 
1847.825931  	100.602600 
1849.262809  	100.606897 
1850.699688  	100.638933 
1852.136567  	100.623552 
1853.573445  	100.583421 
1855.010324  	100.588925 
1856.447203  	100.625721 
1857.884081  	100.630422 
1859.320960  	100.638437 
1860.757839  	100.717838 
1862.194717  	100.743489 
1863.631596  	100.659895 
1865.068474  	100.658542 
1866.505353  	100.701452 
1867.942232  	100.700314 
1869.379110  	100.633645 
1870.815989  	100.602842 
1872.252868  	100.554391 
1873.689746  	100.511792 
1875.126625  	100.520753 
1876.563504  	100.648240 
1878.000382  	100.716570 
1879.437261  	100.701754 
1880.874139  	100.672088 
1882.311018  	100.689937 
1883.747897  	100.709854 
1885.184775  	100.740800 
1886.621654  	100.722080 
1888.058533  	100.643832 
1889.495411  	100.655308 
1890.932290  	100.693614 
1892.369169  	100.616895 
1893.806047  	100.550421 
1895.242926  	100.581263 
1896.679805  	100.638145 
1898.116683  	100.700856 
1899.553562  	100.693158 
1900.990440  	100.608608 
1902.427319  	100.595229 
1903.864198  	100.638378 
1905.301076  	100.647345 
1906.737955  	100.611152 
1908.174834  	100.569214 
1909.611712  	100.623717 
1911.048591  	100.723850 
1912.485470  	100.717122 
1913.922348  	100.652403 
1915.359227  	100.622732 
1916.796105  	100.632661 
1918.232984  	100.647035 
1919.669863  	100.674950 
1921.106741  	100.682815 
1922.543620  	100.652821 
1923.980499  	100.692227 
1925.417377  	100.843414 
1926.854256  	100.892324 
1928.291135  	100.782880 
1929.728013  	100.717299 
1931.164892  	100.716731 
1932.601771  	100.721085 
1934.038649  	100.752036 
1935.475528  	100.756403 
1936.912406  	100.754200 
1938.349285  	100.753543 
1939.786164  	100.685038 
1941.223042  	100.553480 
1942.659921  	100.553234 
1944.096800  	100.945882 
1945.533678  	101.141268 
1946.970557  	100.877830 
1948.407436  	100.798559 
1949.844314  	100.975497 
1951.281193  	100.878514 
1952.718071  	100.791387 
1954.154950  	100.890858 
1955.591829  	100.924117 
1957.028707  	100.918026 
1958.465586  	100.753630 
1959.902465  	100.523025 
1961.339343  	100.589695 
1962.776222  	100.762394 
1964.213101  	100.872752 
1965.649979  	100.794295 
1967.086858  	100.690232 
1968.523737  	101.089102 
1969.960615  	101.320085 
1971.397494  	100.906668 
1972.834372  	100.512083 
1974.271251  	100.396142 
1975.708130  	100.534930 
1977.145008  	100.710742 
1978.581887  	100.593615 
1980.018766  	100.555806 
1981.455644  	100.609538 
1982.892523  	100.722873 
1984.329402  	100.942980 
1985.766280  	100.628239 
1987.203159  	100.125891 
1988.640037  	100.449333 
1990.076916  	101.009838 
1991.513795  	101.147400 
1992.950673  	100.901997 
1994.387552  	100.344351 
1995.824431  	100.182674 
1997.261309  	100.392405 
1998.698188  	100.395851 
2000.135067  	100.368038 
2001.571945  	100.397966 
2003.008824  	100.227103 
2004.445703  	100.111764 
2005.882581  	100.179707 
2007.319460  	100.264692 
2008.756338  	100.351546 
2010.193217  	100.398971 
2011.630096  	100.415215 
2013.066974  	100.456458 
2014.503853  	100.376822 
2015.940732  	100.258455 
2017.377610  	100.270266 
2018.814489  	100.288043 
2020.251368  	100.290285 
2021.688246  	100.402994 
2023.125125  	100.441631 
2024.562003  	100.396893 
2025.998882  	100.501210 
2027.435761  	100.698480 
2028.872639  	100.865136 
2030.309518  	100.732754 
2031.746397  	100.240804 
2033.183275  	100.040485 
2034.620154  	100.220346 
2036.057033  	100.085590 
2037.493911  	99.977395 
2038.930790  	100.106696 
2040.367669  	100.013018 
2041.804547  	99.958081 
2043.241426  	100.137330 
2044.678304  	100.240618 
2046.115183  	100.359577 
2047.552062  	100.565175 
2048.988940  	100.494170 
2050.425819  	100.175657 
2051.862698  	100.038214 
2053.299576  	100.109356 
2054.736455  	100.190792 
2056.173334  	100.420925 
2057.610212  	100.705581 
2059.047091  	100.723152 
2060.483969  	100.596765 
2061.920848  	100.541065 
2063.357727  	100.484018 
2064.794605  	100.383114 
2066.231484  	100.258069 
2067.668363  	100.321380 
2069.105241  	100.567991 
2070.542120  	100.604827 
2071.978999  	100.464376 
2073.415877  	100.436618 
2074.852756  	100.499268 
2076.289635  	100.577136 
2077.726513  	100.542304 
2079.163392  	100.503321 
2080.600270  	100.679405 
2082.037149  	100.755524 
2083.474028  	100.570546 
2084.910906  	100.418183 
2086.347785  	100.375884 
2087.784664  	100.506719 
2089.221542  	100.723183 
2090.658421  	100.794215 
2092.095300  	100.854135 
2093.532178  	100.898813 
2094.969057  	100.780545 
2096.405935  	100.787943 
2097.842814  	100.868976 
2099.279693  	100.694691 
2100.716571  	100.507838 
2102.153450  	100.539100 
2103.590329  	100.635433 
2105.027207  	100.666851 
2106.464086  	100.677351 
2107.900965  	100.710784 
2109.337843  	100.697584 
2110.774722  	100.634117 
2112.211600  	100.626158 
2113.648479  	100.676990 
2115.085358  	100.718340 
2116.522236  	100.702569 
2117.959115  	100.682196 
2119.395994  	100.716154 
2120.832872  	100.730093 
2122.269751  	100.743652 
2123.706630  	100.811527 
2125.143508  	100.888203 
2126.580387  	101.002458 
2128.017266  	101.037239 
2129.454144  	100.895616 
2130.891023  	100.893282 
2132.327901  	101.070729 
2133.764780  	101.119183 
2135.201659  	101.009236 
2136.638537  	100.771522 
2138.075416  	100.644779 
2139.512295  	100.883772 
2140.949173  	101.082085 
2142.386052  	100.961922 
2143.822931  	100.940895 
2145.259809  	101.137716 
2146.696688  	101.051234 
2148.133566  	100.638052 
2149.570445  	100.616311 
2151.007324  	100.958362 
2152.444202  	101.126074 
2153.881081  	101.176472 
2155.317960  	100.951754 
2156.754838  	100.651069 
2158.191717  	101.028884 
2159.628596  	101.136336 
2161.065474  	100.841498 
2162.502353  	101.162322 
2163.939232  	101.008901 
2165.376110  	100.536424 
2166.812989  	100.731535 
2168.249867  	100.684823 
2169.686746  	100.358361 
2171.123625  	100.475108 
2172.560503  	100.645316 
2173.997382  	100.688809 
2175.434261  	100.627497 
2176.871139  	100.306067 
2178.308018  	100.169016 
2179.744897  	100.325099 
2181.181775  	100.363885 
2182.618654  	100.252643 
2184.055532  	100.161545 
2185.492411  	100.214962 
2186.929290  	100.439882 
2188.366168  	100.653828 
2189.803047  	100.704041 
2191.239926  	100.707697 
2192.676804  	100.903676 
2194.113683  	101.129488 
2195.550562  	101.001910 
2196.987440  	100.651504 
2198.424319  	100.366717 
2199.861198  	100.292479 
2201.298076  	100.344018 
2202.734955  	100.286207 
2204.171833  	100.244688 
2205.608712  	100.366378 
2207.045591  	100.476224 
2208.482469  	100.561233 
2209.919348  	100.563004 
2211.356227  	100.326474 
2212.793105  	100.215872 
2214.229984  	100.404940 
2215.666863  	100.457717 
2217.103741  	100.319899 
2218.540620  	100.275330 
2219.977498  	100.319046 
2221.414377  	100.423337 
2222.851256  	100.577393 
2224.288134  	100.625053 
2225.725013  	100.652025 
2227.161892  	100.720627 
2228.598770  	100.568579 
2230.035649  	100.381300 
2231.472528  	100.492966 
2232.909406  	100.479785 
2234.346285  	100.224537 
2235.783164  	100.259033 
2237.220042  	100.459538 
2238.656921  	100.432010 
2240.093799  	100.370075 
2241.530678  	100.435876 
2242.967557  	100.515907 
2244.404435  	100.522126 
2245.841314  	100.423894 
2247.278193  	100.332889 
2248.715071  	100.368526 
2250.151950  	100.464375 
2251.588829  	100.499113 
2253.025707  	100.436114 
2254.462586  	100.323700 
2255.899464  	100.327251 
2257.336343  	100.479797 
2258.773222  	100.539391 
2260.210100  	100.451524 
2261.646979  	100.409960 
2263.083858  	100.405554 
2264.520736  	100.384843 
2265.957615  	100.434903 
2267.394494  	100.462167 
2268.831372  	100.373822 
2270.268251  	100.315130 
2271.705130  	100.356245 
2273.142008  	100.412020 
2274.578887  	100.389535 
2276.015765  	100.339841 
2277.452644  	100.415253 
2278.889523  	100.505110 
2280.326401  	100.450983 
2281.763280  	100.401100 
2283.200159  	100.437969 
2284.637037  	100.494176 
2286.073916  	100.531310 
2287.510795  	100.501827 
2288.947673  	100.460903 
2290.384552  	100.504878 
2291.821430  	100.539902 
2293.258309  	100.528111 
2294.695188  	100.513231 
2296.132066  	100.525425 
2297.568945  	100.471270 
2299.005824  	100.515821 
2300.442702  	100.618471 
2301.879581  	100.599792 
2303.316460  	100.496538 
2304.753338  	100.499944 
2306.190217  	100.580494 
2307.627096  	100.595534 
2309.063974  	100.586522 
2310.500853  	100.607448 
2311.937731  	100.619256 
2313.374610  	100.632998 
2314.811489  	100.647432 
2316.248367  	100.636946 
2317.685246  	100.608884 
2319.122125  	100.575771 
2320.559003  	100.590434 
2321.995882  	100.643137 
2323.432761  	100.638384 
2324.869639  	100.647026 
2326.306518  	100.752667 
2327.743396  	100.817444 
2329.180275  	100.752419 
2330.617154  	100.673571 
2332.054032  	100.626678 
2333.490911  	100.551946 
2334.927790  	100.499905 
2336.364668  	100.510051 
2337.801547  	100.554908 
2339.238426  	100.643170 
2340.675304  	100.731854 
2342.112183  	100.724739 
2343.549062  	100.626242 
2344.985940  	100.541440 
2346.422819  	100.588134 
2347.859697  	100.678959 
2349.296576  	100.671474 
2350.733455  	100.634687 
2352.170333  	100.648666 
2353.607212  	100.658261 
2355.044091  	100.662315 
2356.480969  	100.630911 
2357.917848  	100.503868 
2359.354727  	100.503503 
2360.791605  	100.608999 
2362.228484  	100.505014 
2363.665362  	100.332185 
2365.102241  	100.301277 
2366.539120  	100.268926 
2367.975998  	100.193073 
2369.412877  	100.196297 
2370.849756  	100.269570 
2372.286634  	100.320976 
2373.723513  	100.330249 
2375.160392  	100.341095 
2376.597270  	100.364866 
2378.034149  	100.398376 
2379.471027  	100.445045 
2380.907906  	100.481317 
2382.344785  	100.491614 
2383.781663  	100.497737 
2385.218542  	100.542784 
2386.655421  	100.606023 
2388.092299  	100.592750 
2389.529178  	100.549784 
2390.966057  	100.582961 
2392.402935  	100.603837 
2393.839814  	100.598916 
2395.276693  	100.665646 
2396.713571  	100.678386 
2398.150450  	100.587537 
2399.587328  	100.583181 
2401.024207  	100.666591 
2402.461086  	100.699016 
2403.897964  	100.678302 
2405.334843  	100.665976 
2406.771722  	100.689486 
2408.208600  	100.702425 
2409.645479  	100.680501 
2411.082358  	100.679284 
2412.519236  	100.689075 
2413.956115  	100.707956 
2415.392993  	100.760056 
2416.829872  	100.747166 
2418.266751  	100.678883 
2419.703629  	100.694030 
2421.140508  	100.717038 
2422.577387  	100.648591 
2424.014265  	100.605631 
2425.451144  	100.649622 
2426.888023  	100.688540 
2428.324901  	100.684489 
2429.761780  	100.707417 
2431.198659  	100.747141 
2432.635537  	100.683710 
2434.072416  	100.559759 
2435.509294  	100.541764 
2436.946173  	100.608815 
2438.383052  	100.644290 
2439.819930  	100.626437 
2441.256809  	100.592114 
2442.693688  	100.580468 
2444.130566  	100.591190 
2445.567445  	100.610556 
2447.004324  	100.625057 
2448.441202  	100.613014 
2449.878081  	100.620843 
2451.314959  	100.672564 
2452.751838  	100.692588 
2454.188717  	100.667209 
2455.625595  	100.642511 
2457.062474  	100.647972 
2458.499353  	100.701362 
2459.936231  	100.740707 
2461.373110  	100.724936 
2462.809989  	100.709847 
2464.246867  	100.716785 
2465.683746  	100.746713 
2467.120625  	100.763239 
2468.557503  	100.717949 
2469.994382  	100.717013 
2471.431260  	100.785114 
2472.868139  	100.763544 
2474.305018  	100.687186 
2475.741896  	100.684209 
2477.178775  	100.697261 
2478.615654  	100.684568 
2480.052532  	100.700225 
2481.489411  	100.731030 
2482.926290  	100.721094 
2484.363168  	100.700452 
2485.800047  	100.709554 
2487.236925  	100.677352 
2488.673804  	100.614873 
2490.110683  	100.638702 
2491.547561  	100.684812 
2492.984440  	100.665430 
2494.421319  	100.659281 
2495.858197  	100.669479 
2497.295076  	100.648472 
2498.731955  	100.654857 
2500.168833  	100.704225 
2501.605712  	100.715402 
2503.042591  	100.668977 
2504.479469  	100.664840 
2505.916348  	100.742433 
2507.353226  	100.791661 
2508.790105  	100.780244 
2510.226984  	100.764357 
2511.663862  	100.708824 
2513.100741  	100.632499 
2514.537620  	100.631430 
2515.974498  	100.670958 
2517.411377  	100.675268 
2518.848256  	100.681839 
2520.285134  	100.721615 
2521.722013  	100.736393 
2523.158891  	100.713629 
2524.595770  	100.718501 
2526.032649  	100.745220 
2527.469527  	100.738041 
2528.906406  	100.709547 
2530.343285  	100.700472 
2531.780163  	100.717232 
2533.217042  	100.714931 
2534.653921  	100.681569 
2536.090799  	100.683052 
2537.527678  	100.696259 
2538.964557  	100.661689 
2540.401435  	100.646121 
2541.838314  	100.665814 
2543.275192  	100.661561 
2544.712071  	100.642675 
2546.148950  	100.612559 
2547.585828  	100.595244 
2549.022707  	100.635946 
2550.459586  	100.669930 
2551.896464  	100.653561 
2553.333343  	100.644944 
2554.770222  	100.676096 
2556.207100  	100.734403 
2557.643979  	100.750466 
2559.080857  	100.670636 
2560.517736  	100.585972 
2561.954615  	100.573940 
2563.391493  	100.587485 
2564.828372  	100.586911 
2566.265251  	100.585960 
2567.702129  	100.621993 
2569.139008  	100.681745 
2570.575887  	100.678832 
2572.012765  	100.633498 
2573.449644  	100.638368 
2574.886523  	100.654433 
2576.323401  	100.631130 
2577.760280  	100.598663 
2579.197158  	100.570610 
2580.634037  	100.579508 
2582.070916  	100.622844 
2583.507794  	100.623630 
2584.944673  	100.599465 
2586.381552  	100.604136 
2587.818430  	100.617371 
2589.255309  	100.625392 
2590.692188  	100.599052 
2592.129066  	100.540811 
2593.565945  	100.514184 
2595.002823  	100.506930 
2596.439702  	100.519327 
2597.876581  	100.578903 
2599.313459  	100.623383 
2600.750338  	100.637006 
2602.187217  	100.626690 
2603.624095  	100.570933 
2605.060974  	100.543211 
2606.497853  	100.548180 
2607.934731  	100.541412 
2609.371610  	100.573280 
2610.808489  	100.578347 
2612.245367  	100.530620 
2613.682246  	100.553318 
2615.119124  	100.564911 
2616.556003  	100.498588 
2617.992882  	100.491468 
2619.429760  	100.526478 
2620.866639  	100.537577 
2622.303518  	100.560008 
2623.740396  	100.568387 
2625.177275  	100.568307 
2626.614154  	100.588154 
2628.051032  	100.591000 
2629.487911  	100.580412 
2630.924789  	100.572253 
2632.361668  	100.577462 
2633.798547  	100.609760 
2635.235425  	100.620718 
2636.672304  	100.604963 
2638.109183  	100.605246 
2639.546061  	100.601881 
2640.982940  	100.596461 
2642.419819  	100.610308 
2643.856697  	100.618456 
2645.293576  	100.613103 
2646.730454  	100.603833 
2648.167333  	100.601467 
2649.604212  	100.626178 
2651.041090  	100.667368 
2652.477969  	100.686120 
2653.914848  	100.657698 
2655.351726  	100.621513 
2656.788605  	100.636386 
2658.225484  	100.661360 
2659.662362  	100.645893 
2661.099241  	100.637756 
2662.536120  	100.660056 
2663.972998  	100.677212 
2665.409877  	100.680104 
2666.846755  	100.676142 
2668.283634  	100.675410 
2669.720513  	100.688733 
2671.157391  	100.705883 
2672.594270  	100.710548 
2674.031149  	100.706592 
2675.468027  	100.717504 
2676.904906  	100.742108 
2678.341785  	100.747321 
2679.778663  	100.738408 
2681.215542  	100.744315 
2682.652420  	100.752774 
2684.089299  	100.748250 
2685.526178  	100.741779 
2686.963056  	100.741480 
2688.399935  	100.748019 
2689.836814  	100.755945 
2691.273692  	100.757488 
2692.710571  	100.752215 
2694.147450  	100.740962 
2695.584328  	100.740758 
2697.021207  	100.766404 
2698.458086  	100.778610 
2699.894964  	100.761381 
2701.331843  	100.767230 
2702.768721  	100.784131 
2704.205600  	100.765899 
2705.642479  	100.754956 
2707.079357  	100.767289 
2708.516236  	100.765386 
2709.953115  	100.768540 
2711.389993  	100.779902 
2712.826872  	100.770575 
2714.263751  	100.761393 
2715.700629  	100.766461 
2717.137508  	100.775016 
2718.574386  	100.785573 
2720.011265  	100.790761 
2721.448144  	100.793700 
2722.885022  	100.796841 
2724.321901  	100.789153 
2725.758780  	100.778886 
2727.195658  	100.781382 
2728.632537  	100.787372 
2730.069416  	100.763489 
2731.506294  	100.731387 
2732.943173  	100.761523 
2734.380052  	100.801805 
2735.816930  	100.774418 
2737.253809  	100.750045 
2738.690687  	100.764198 
2740.127566  	100.778467 
2741.564445  	100.799767 
2743.001323  	100.807490 
2744.438202  	100.800543 
2745.875081  	100.813596 
2747.311959  	100.814213 
2748.748838  	100.806096 
2750.185717  	100.812270 
2751.622595  	100.790953 
2753.059474  	100.765329 
2754.496352  	100.774189 
2755.933231  	100.777286 
2757.370110  	100.757629 
2758.806988  	100.742614 
2760.243867  	100.766871 
2761.680746  	100.811114 
2763.117624  	100.810664 
2764.554503  	100.795012 
2765.991382  	100.803943 
2767.428260  	100.802662 
2768.865139  	100.802386 
2770.302018  	100.799176 
2771.738896  	100.766592 
2773.175775  	100.758313 
2774.612653  	100.779650 
2776.049532  	100.789163 
2777.486411  	100.801529 
2778.923289  	100.802487 
2780.360168  	100.793669 
2781.797047  	100.814063 
2783.233925  	100.822270 
2784.670804  	100.799144 
2786.107683  	100.793559 
2787.544561  	100.796706 
2788.981440  	100.795042 
2790.418318  	100.799859 
2791.855197  	100.796688 
2793.292076  	100.809230 
2794.728954  	100.842181 
2796.165833  	100.822591 
2797.602712  	100.764956 
2799.039590  	100.746842 
2800.476469  	100.748838 
2801.913348  	100.760073 
2803.350226  	100.802505 
2804.787105  	100.814529 
2806.223984  	100.776516 
2807.660862  	100.769171 
2809.097741  	100.803920 
2810.534619  	100.821194 
2811.971498  	100.802193 
2813.408377  	100.775722 
2814.845255  	100.767801 
2816.282134  	100.772949 
2817.719013  	100.789058 
2819.155891  	100.805839 
2820.592770  	100.793317 
2822.029649  	100.787447 
2823.466527  	100.827382 
2824.903406  	100.853843 
2826.340284  	100.831627 
2827.777163  	100.803733 
2829.214042  	100.798132 
2830.650920  	100.804870 
2832.087799  	100.807137 
2833.524678  	100.809662 
2834.961556  	100.811753 
2836.398435  	100.798635 
2837.835314  	100.794955 
2839.272192  	100.809648 
2840.709071  	100.817587 
2842.145950  	100.831462 
2843.582828  	100.836079 
2845.019707  	100.801974 
2846.456585  	100.779814 
2847.893464  	100.795047 
2849.330343  	100.813968 
2850.767221  	100.841596 
2852.204100  	100.876248 
2853.640979  	100.874206 
2855.077857  	100.826841 
2856.514736  	100.791167 
2857.951615  	100.806727 
2859.388493  	100.822475 
2860.825372  	100.798087 
2862.262250  	100.786296 
2863.699129  	100.807319 
2865.136008  	100.803812 
2866.572886  	100.775566 
2868.009765  	100.787166 
2869.446644  	100.829569 
2870.883522  	100.838136 
2872.320401  	100.819877 
2873.757280  	100.809438 
2875.194158  	100.808516 
2876.631037  	100.817608 
2878.067916  	100.806150 
2879.504794  	100.779534 
2880.941673  	100.807544 
2882.378551  	100.832731 
2883.815430  	100.778198 
2885.252309  	100.751555 
2886.689187  	100.790386 
2888.126066  	100.799286 
2889.562945  	100.804811 
2890.999823  	100.846241 
2892.436702  	100.861058 
2893.873581  	100.844758 
2895.310459  	100.838451 
2896.747338  	100.846730 
2898.184216  	100.861256 
2899.621095  	100.853394 
2901.057974  	100.819855 
2902.494852  	100.803386 
2903.931731  	100.811002 
2905.368610  	100.823708 
2906.805488  	100.825235 
2908.242367  	100.812627 
2909.679246  	100.834755 
2911.116124  	100.881805 
2912.553003  	100.875041 
2913.989882  	100.855123 
2915.426760  	100.871717 
2916.863639  	100.859429 
2918.300517  	100.826082 
2919.737396  	100.817386 
2921.174275  	100.813466 
2922.611153  	100.830560 
2924.048032  	100.865767 
2925.484911  	100.885193 
2926.921789  	100.896933 
2928.358668  	100.869139 
2929.795547  	100.813483 
2931.232425  	100.806396 
2932.669304  	100.809977 
2934.106182  	100.797533 
2935.543061  	100.826065 
2936.979940  	100.859279 
2938.416818  	100.849280 
2939.853697  	100.828184 
2941.290576  	100.824624 
2942.727454  	100.838706 
2944.164333  	100.819228 
2945.601212  	100.757717 
2947.038090  	100.771241 
2948.474969  	100.871594 
2949.911847  	100.897092 
2951.348726  	100.821352 
2952.785605  	100.789087 
2954.222483  	100.820978 
2955.659362  	100.829513 
2957.096241  	100.833844 
2958.533119  	100.854842 
2959.969998  	100.840177 
2961.406877  	100.815969 
2962.843755  	100.816455 
2964.280634  	100.818670 
2965.717513  	100.838895 
2967.154391  	100.867835 
2968.591270  	100.863859 
2970.028148  	100.835997 
2971.465027  	100.819593 
2972.901906  	100.859385 
2974.338784  	100.905949 
2975.775663  	100.859784 
2977.212542  	100.806627 
2978.649420  	100.841036 
2980.086299  	100.877291 
2981.523178  	100.864097 
2982.960056  	100.843041 
2984.396935  	100.858153 
2985.833813  	100.906750 
2987.270692  	100.911937 
2988.707571  	100.866313 
2990.144449  	100.840057 
2991.581328  	100.841965 
2993.018207  	100.856987 
2994.455085  	100.858898 
2995.891964  	100.841861 
2997.328843  	100.856314 
2998.765721  	100.878929 
3000.202600  	100.869736 
3001.639479  	100.861468 
3003.076357  	100.855168 
3004.513236  	100.847621 
3005.950114  	100.843753 
3007.386993  	100.840119 
3008.823872  	100.874784 
3010.260750  	100.902305 
3011.697629  	100.853514 
3013.134508  	100.812565 
3014.571386  	100.826815 
3016.008265  	100.859691 
3017.445144  	100.903790 
3018.882022  	100.906355 
3020.318901  	100.882131 
3021.755779  	100.906998 
3023.192658  	100.909257 
3024.629537  	100.850745 
3026.066415  	100.827428 
3027.503294  	100.846347 
3028.940173  	100.861786 
3030.377051  	100.873989 
3031.813930  	100.879751 
3033.250809  	100.897180 
3034.687687  	100.925990 
3036.124566  	100.912855 
3037.561445  	100.868497 
3038.998323  	100.845729 
3040.435202  	100.829923 
3041.872080  	100.821807 
3043.308959  	100.858815 
3044.745838  	100.893499 
3046.182716  	100.881547 
3047.619595  	100.889859 
3049.056474  	100.927581 
3050.493352  	100.917050 
3051.930231  	100.881129 
3053.367110  	100.888343 
3054.803988  	100.903862 
3056.240867  	100.877688 
3057.677745  	100.848237 
3059.114624  	100.843857 
3060.551503  	100.831471 
3061.988381  	100.833172 
3063.425260  	100.880476 
3064.862139  	100.906968 
3066.299017  	100.877491 
3067.735896  	100.840129 
3069.172775  	100.826636 
3070.609653  	100.857705 
3072.046532  	100.906086 
3073.483411  	100.906008 
3074.920289  	100.870009 
3076.357168  	100.847131 
3077.794046  	100.865455 
3079.230925  	100.913768 
3080.667804  	100.918739 
3082.104682  	100.885886 
3083.541561  	100.875400 
3084.978440  	100.864771 
3086.415318  	100.869534 
3087.852197  	100.898140 
3089.289076  	100.870221 
3090.725954  	100.825058 
3092.162833  	100.838397 
3093.599711  	100.858376 
3095.036590  	100.868548 
3096.473469  	100.884238 
3097.910347  	100.888362 
3099.347226  	100.903068 
3100.784105  	100.917835 
3102.220983  	100.893757 
3103.657862  	100.846674 
3105.094741  	100.820200 
3106.531619  	100.863570 
3107.968498  	100.926778 
3109.405377  	100.909747 
3110.842255  	100.873813 
3112.279134  	100.882336 
3113.716012  	100.893069 
3115.152891  	100.914232 
3116.589770  	100.920681 
3118.026648  	100.888610 
3119.463527  	100.892676 
3120.900406  	100.892619 
3122.337284  	100.859081 
3123.774163  	100.900737 
3125.211042  	100.938141 
3126.647920  	100.880781 
3128.084799  	100.877776 
3129.521677  	100.913070 
3130.958556  	100.860468 
3132.395435  	100.841682 
3133.832313  	100.899592 
3135.269192  	100.889154 
3136.706071  	100.856946 
3138.142949  	100.884374 
3139.579828  	100.895812 
3141.016707  	100.895464 
3142.453585  	100.926458 
3143.890464  	100.930354 
3145.327343  	100.898119 
3146.764221  	100.875519 
3148.201100  	100.897428 
3149.637978  	100.977375 
3151.074857  	101.001950 
3152.511736  	100.922774 
3153.948614  	100.902635 
3155.385493  	100.938824 
3156.822372  	100.902936 
3158.259250  	100.877335 
3159.696129  	100.916310 
3161.133008  	100.942360 
3162.569886  	100.957447 
3164.006765  	100.963787 
3165.443643  	100.944019 
3166.880522  	100.909689 
3168.317401  	100.867002 
3169.754279  	100.885429 
3171.191158  	100.961480 
3172.628037  	100.966823 
3174.064915  	100.928563 
3175.501794  	100.927416 
3176.938673  	100.922331 
3178.375551  	100.923782 
3179.812430  	100.951135 
3181.249309  	100.953181 
3182.686187  	100.930561 
3184.123066  	100.908277 
3185.559944  	100.895682 
3186.996823  	100.896282 
3188.433702  	100.903670 
3189.870580  	100.923617 
3191.307459  	100.937641 
3192.744338  	100.942438 
3194.181216  	100.968251 
3195.618095  	100.990701 
3197.054974  	100.998483 
3198.491852  	100.972263 
3199.928731  	100.888828 
3201.365609  	100.890587 
3202.802488  	100.988214 
3204.239367  	100.962370 
3205.676245  	100.875087 
3207.113124  	100.895950 
3208.550003  	100.925034 
3209.986881  	100.913665 
3211.423760  	100.901715 
3212.860639  	100.880762 
3214.297517  	100.877133 
3215.734396  	100.843620 
3217.171274  	100.799650 
3218.608153  	100.884233 
3220.045032  	100.995613 
3221.481910  	101.002794 
3222.918789  	100.994475 
3224.355668  	100.964030 
3225.792546  	100.911223 
3227.229425  	100.923874 
3228.666304  	100.937926 
3230.103182  	100.924237 
3231.540061  	100.927329 
3232.976940  	100.885039 
3234.413818  	100.832827 
3235.850697  	100.857390 
3237.287575  	100.892838 
3238.724454  	100.901539 
3240.161333  	100.912553 
3241.598211  	100.911187 
3243.035090  	100.904754 
3244.471969  	100.917251 
3245.908847  	100.936249 
3247.345726  	100.925870 
3248.782605  	100.883157 
3250.219483  	100.856561 
3251.656362  	100.841565 
3253.093240  	100.818272 
3254.530119  	100.853871 
3255.966998  	100.915878 
3257.403876  	100.887408 
3258.840755  	100.840126 
3260.277634  	100.872416 
3261.714512  	100.916063 
3263.151391  	100.928527 
3264.588270  	100.947694 
3266.025148  	100.975739 
3267.462027  	100.984864 
3268.898906  	100.948647 
3270.335784  	100.887544 
3271.772663  	100.872797 
3273.209541  	100.884172 
3274.646420  	100.831050 
3276.083299  	100.750158 
3277.520177  	100.746840 
3278.957056  	100.820636 
3280.393935  	100.905956 
3281.830813  	100.963751 
3283.267692  	100.995477 
3284.704571  	101.004063 
3286.141449  	100.958355 
3287.578328  	100.882286 
3289.015206  	100.842775 
3290.452085  	100.812916 
3291.888964  	100.773142 
3293.325842  	100.798481 
3294.762721  	100.891017 
3296.199600  	100.961435 
3297.636478  	100.956850 
3299.073357  	100.906058 
3300.510236  	100.895155 
3301.947114  	100.907042 
3303.383993  	100.866897 
3304.820872  	100.837089 
3306.257750  	100.868242 
3307.694629  	100.889915 
3309.131507  	100.896394 
3310.568386  	100.932539 
3312.005265  	100.967279 
3313.442143  	100.936944 
3314.879022  	100.859108 
3316.315901  	100.840968 
3317.752779  	100.869942 
3319.189658  	100.844361 
3320.626537  	100.836437 
3322.063415  	100.905464 
3323.500294  	100.928077 
3324.937172  	100.899950 
3326.374051  	100.914920 
3327.810930  	100.928474 
3329.247808  	100.915517 
3330.684687  	100.933232 
3332.121566  	100.953960 
3333.558444  	100.913000 
3334.995323  	100.839730 
3336.432202  	100.826449 
3337.869080  	100.888967 
3339.305959  	100.923246 
3340.742838  	100.900574 
3342.179716  	100.928501 
3343.616595  	101.017521 
3345.053473  	101.042521 
3346.490352  	100.982813 
3347.927231  	100.924462 
3349.364109  	100.891175 
3350.800988  	100.880914 
3352.237867  	100.929135 
3353.674745  	101.008249 
3355.111624  	101.025137 
3356.548503  	100.971681 
3357.985381  	100.942722 
3359.422260  	100.963822 
3360.859138  	100.969223 
3362.296017  	100.941172 
3363.732896  	100.916861 
3365.169774  	100.916797 
3366.606653  	100.942495 
3368.043532  	100.968017 
3369.480410  	100.954798 
3370.917289  	100.918146 
3372.354168  	100.931255 
3373.791046  	101.005254 
3375.227925  	101.045374 
3376.664804  	101.033487 
3378.101682  	101.029137 
3379.538561  	100.986003 
3380.975439  	100.913478 
3382.412318  	100.924055 
3383.849197  	100.964189 
3385.286075  	100.953518 
3386.722954  	100.948212 
3388.159833  	100.937609 
3389.596711  	100.898826 
3391.033590  	100.892338 
3392.470469  	100.933036 
3393.907347  	100.992703 
3395.344226  	101.019107 
3396.781104  	100.988433 
3398.217983  	100.956697 
3399.654862  	100.931719 
3401.091740  	100.880320 
3402.528619  	100.852510 
3403.965498  	100.877455 
3405.402376  	100.919552 
3406.839255  	100.962852 
3408.276134  	101.004160 
3409.713012  	101.033040 
3411.149891  	101.014507 
3412.586770  	100.952800 
3414.023648  	100.936241 
3415.460527  	100.987104 
3416.897405  	101.016849 
3418.334284  	101.001880 
3419.771163  	100.989875 
3421.208041  	100.962079 
3422.644920  	100.914064 
3424.081799  	100.928741 
3425.518677  	100.961835 
3426.955556  	100.923480 
3428.392435  	100.924674 
3429.829313  	100.991215 
3431.266192  	100.955994 
3432.703070  	100.861025 
3434.139949  	100.849008 
3435.576828  	100.885774 
3437.013706  	100.917256 
3438.450585  	100.914856 
3439.887464  	100.885441 
3441.324342  	100.905400 
3442.761221  	100.964419 
3444.198100  	100.973595 
3445.634978  	100.924012 
3447.071857  	100.882465 
3448.508736  	100.916045 
3449.945614  	100.990087 
3451.382493  	101.030625 
3452.819371  	101.001517 
3454.256250  	100.961416 
3455.693129  	101.003649 
3457.130007  	101.003290 
3458.566886  	100.879556 
3460.003765  	100.867199 
3461.440643  	100.996262 
3462.877522  	101.047625 
3464.314401  	101.018012 
3465.751279  	100.957552 
3467.188158  	100.901006 
3468.625036  	100.941887 
3470.061915  	100.992264 
3471.498794  	100.980613 
3472.935672  	100.965009 
3474.372551  	100.936572 
3475.809430  	100.921878 
3477.246308  	100.936888 
3478.683187  	100.913940 
3480.120066  	100.870012 
3481.556944  	100.833986 
3482.993823  	100.823407 
3484.430701  	100.876235 
3485.867580  	100.956281 
3487.304459  	101.014667 
3488.741337  	100.975217 
3490.178216  	100.882144 
3491.615095  	100.905579 
3493.051973  	100.984555 
3494.488852  	101.017593 
3495.925731  	101.059768 
3497.362609  	101.062641 
3498.799488  	101.043442 
3500.236367  	101.071117 
3501.673245  	101.014610 
3503.110124  	100.894097 
3504.547002  	100.885573 
3505.983881  	100.918658 
3507.420760  	100.899519 
3508.857638  	100.819308 
3510.294517  	100.812171 
3511.731396  	100.993591 
3513.168274  	101.078893 
3514.605153  	101.003206 
3516.042032  	101.027240 
3517.478910  	101.101490 
3518.915789  	101.076218 
3520.352667  	101.013842 
3521.789546  	100.930752 
3523.226425  	100.838488 
3524.663303  	100.803250 
3526.100182  	100.826050 
3527.537061  	100.889842 
3528.973939  	100.935417 
3530.410818  	100.937026 
3531.847697  	100.943538 
3533.284575  	100.927487 
3534.721454  	100.945116 
3536.158333  	101.052280 
3537.595211  	101.096214 
3539.032090  	101.016411 
3540.468968  	100.953773 
3541.905847  	100.976514 
3543.342726  	101.035891 
3544.779604  	101.050041 
3546.216483  	101.009233 
3547.653362  	101.010702 
3549.090240  	100.991405 
3550.527119  	100.918516 
3551.963998  	100.896189 
3553.400876  	100.934532 
3554.837755  	100.951625 
3556.274633  	100.955184 
3557.711512  	100.974393 
3559.148391  	101.003381 
3560.585269  	101.003525 
3562.022148  	101.005974 
3563.459027  	101.032534 
3564.895905  	101.005223 
3566.332784  	100.948919 
3567.769663  	101.007655 
3569.206541  	101.055351 
3570.643420  	100.959136 
3572.080299  	100.872248 
3573.517177  	100.868170 
3574.954056  	100.975744 
3576.390934  	101.095102 
3577.827813  	101.061064 
3579.264692  	100.942589 
3580.701570  	100.923132 
3582.138449  	101.025836 
3583.575328  	101.109064 
3585.012206  	101.061229 
3586.449085  	100.975888 
3587.885964  	101.023097 
3589.322842  	101.084698 
3590.759721  	100.980526 
3592.196599  	100.925663 
3593.633478  	100.967555 
3595.070357  	101.066674 
3596.507235  	101.150102 
3597.944114  	101.090936 
3599.380993  	100.988406 
3600.817871  	101.042467 
3602.254750  	101.181453 
3603.691629  	101.227485 
3605.128507  	101.190330 
3606.565386  	101.133608 
3608.002265  	101.178681 
3609.439143  	101.287360 
3610.876022  	101.175958 
3612.312900  	100.965807 
3613.749779  	100.844379 
3615.186658  	100.955113 
3616.623536  	101.115573 
3618.060415  	101.145155 
3619.497294  	101.008976 
3620.934172  	100.974385 
3622.371051  	101.060364 
3623.807930  	101.106207 
3625.244808  	101.054914 
3626.681687  	100.972878 
3628.118565  	101.061981 
3629.555444  	101.100774 
3630.992323  	100.848409 
3632.429201  	100.809358 
3633.866080  	100.871305 
3635.302959  	100.813761 
3636.739837  	100.852047 
3638.176716  	101.038306 
3639.613595  	101.065041 
3641.050473  	100.998882 
3642.487352  	101.061049 
3643.924231  	101.102511 
3645.361109  	101.136194 
3646.797988  	101.243114 
3648.234866  	101.068080 
3649.671745  	100.773881 
3651.108624  	100.915339 
3652.545502  	100.932666 
3653.982381  	100.780875 
3655.419260  	100.778789 
3656.856138  	101.003534 
3658.293017  	101.203352 
3659.729896  	101.161405 
3661.166774  	101.054292 
3662.603653  	101.078684 
3664.040531  	101.180768 
3665.477410  	101.152311 
3666.914289  	101.092594 
3668.351167  	101.195966 
3669.788046  	101.491390 
3671.224925  	101.650469 
3672.661803  	101.364913 
3674.098682  	101.127003 
3675.535561  	100.997821 
3676.972439  	101.216380 
3678.409318  	101.162718 
3679.846197  	100.895542 
3681.283075  	100.778345 
3682.719954  	100.929415 
3684.156832  	101.083402 
3685.593711  	101.116718 
3687.030590  	101.136545 
3688.467468  	101.165253 
3689.904347  	101.111984 
3691.341226  	100.988738 
3692.778104  	100.848445 
3694.214983  	100.821815 
3695.651862  	100.880950 
3697.088740  	100.965175 
3698.525619  	101.032145 
3699.962497  	101.025269 
3701.399376  	100.982086 
3702.836255  	100.971130 
3704.273133  	100.953137 
3705.710012  	100.943066 
3707.146891  	101.071947 
3708.583769  	101.245380 
3710.020648  	101.287397 
3711.457527  	101.270894 
3712.894405  	101.191778 
3714.331284  	101.011656 
3715.768163  	100.983807 
3717.205041  	101.079687 
3718.641920  	101.159810 
3720.078798  	101.184026 
3721.515677  	101.172673 
3722.952556  	101.121665 
3724.389434  	101.062013 
3725.826313  	101.027615 
3727.263192  	101.041499 
3728.700070  	101.051489 
3730.136949  	101.039460 
3731.573828  	101.192986 
3733.010706  	101.427506 
3734.447585  	101.310615 
3735.884463  	101.057559 
3737.321342  	101.001819 
3738.758221  	100.972985 
3740.195099  	101.015234 
3741.631978  	101.145071 
3743.068857  	101.148746 
3744.505735  	101.006663 
3745.942614  	101.033622 
3747.379493  	101.122712 
3748.816371  	101.069545 
3750.253250  	100.875622 
3751.690129  	100.757724 
3753.127007  	100.829677 
3754.563886  	100.921605 
3756.000764  	100.944353 
3757.437643  	100.934549 
3758.874522  	100.935932 
3760.311400  	100.954322 
3761.748279  	100.922511 
3763.185158  	100.886120 
3764.622036  	100.907416 
3766.058915  	100.974834 
3767.495794  	101.000008 
3768.932672  	100.991260 
3770.369551  	100.989370 
3771.806429  	101.009973 
3773.243308  	101.037906 
3774.680187  	101.034264 
3776.117065  	100.978477 
3777.553944  	101.024852 
3778.990823  	101.117701 
3780.427701  	101.014094 
3781.864580  	100.917904 
3783.301459  	101.003668 
3784.738337  	101.104420 
3786.175216  	101.092459 
3787.612094  	101.095622 
3789.048973  	101.186919 
3790.485852  	101.297495 
3791.922730  	101.254777 
3793.359609  	101.256269 
3794.796488  	101.152111 
3796.233366  	101.187293 
3797.670245  	101.366173 
3799.107124  	101.294458 
3800.544002  	101.112210 
3801.980881  	101.116265 
3803.417760  	101.249295 
3804.854638  	101.185464 
3806.291517  	101.230842 
3807.728395  	101.289460 
3809.165274  	101.190404 
3810.602153  	101.172690 
3812.039031  	101.160152 
3813.475910  	101.025162 
3814.912789  	100.991254 
3816.349667  	101.124126 
3817.786546  	101.199166 
3819.223425  	101.183478 
3820.660303  	101.369466 
3822.097182  	101.629018 
3823.534060  	101.330708 
3824.970939  	101.042757 
3826.407818  	101.029093 
3827.844696  	101.180445 
3829.281575  	101.136835 
3830.718454  	100.983722 
3832.155332  	100.915832 
3833.592211  	100.953385 
3835.029090  	101.070464 
3836.465968  	101.378997 
3837.902847  	101.552194 
3839.339726  	101.353335 
3840.776604  	101.369164 
3842.213483  	101.408006 
3843.650361  	101.172699 
3845.087240  	100.983170 
3846.524119  	101.024142 
3847.960997  	101.056127 
3849.397876  	101.036662 
3850.834755  	101.049184 
3852.271633  	101.167385 
3853.708512  	101.175084 
3855.145391  	101.099371 
3856.582269  	101.104879 
3858.019148  	101.092761 
3859.456026  	101.077912 
3860.892905  	101.142319 
3862.329784  	101.195256 
3863.766662  	101.112855 
3865.203541  	100.973814 
3866.640420  	100.948297 
3868.077298  	100.996567 
3869.514177  	100.992731 
3870.951056  	100.997043 
3872.387934  	101.071083 
3873.824813  	101.100845 
3875.261692  	101.127639 
3876.698570  	101.105059 
3878.135449  	101.024203 
3879.572327  	101.022315 
3881.009206  	101.130814 
3882.446085  	100.992818 
3883.882963  	100.854085 
3885.319842  	100.832090 
3886.756721  	100.910782 
3888.193599  	101.045665 
3889.630478  	101.073164 
3891.067357  	101.129515 
3892.504235  	101.212391 
3893.941114  	101.124212 
3895.377992  	101.036799 
3896.814871  	101.020114 
3898.251750  	100.993702 
3899.688628  	101.133236 
3901.125507  	101.323715 
3902.562386  	101.048326 
3903.999264  	100.660357 
3905.436143  	100.804348 
3906.873022  	101.063763 
3908.309900  	101.018893 
3909.746779  	100.923239 
3911.183658  	100.939668 
3912.620536  	100.986080 
3914.057415  	101.036756 
3915.494293  	101.038484 
3916.931172  	100.949137 
3918.368051  	100.940427 
3919.804929  	101.051882 
3921.241808  	101.057620 
3922.678687  	100.977950 
3924.115565  	100.977458 
3925.552444  	101.065426 
3926.989323  	101.089395 
3928.426201  	101.006304 
3929.863080  	100.951415 
3931.299958  	101.007919 
3932.736837  	101.020736 
3934.173716  	100.953459 
3935.610594  	100.967401 
3937.047473  	101.010013 
3938.484352  	101.075495 
3939.921230  	101.115929 
3941.358109  	101.078781 
3942.794988  	101.038433 
3944.231866  	101.062162 
3945.668745  	101.030869 
3947.105624  	100.979136 
3948.542502  	100.968045 
3949.979381  	100.958000 
3951.416259  	100.962499 
3952.853138  	100.990433 
3954.290017  	101.027940 
3955.726895  	101.043833 
3957.163774  	101.045538 
3958.600653  	101.043630 
3960.037531  	101.017182 
3961.474410  	101.013854 
3962.911289  	101.018927 
3964.348167  	101.022419 
3965.785046  	101.028459 
3967.221924  	101.005951 
3968.658803  	101.002595 
3970.095682  	101.057406 
3971.532560  	101.102508 
3972.969439  	101.118632 
3974.406318  	101.088375 
3975.843196  	101.016907 
3977.280075  	101.027832 
3978.716954  	101.091720 
3980.153832  	101.081807 
3981.590711  	101.054884 
3983.027590  	101.070306 
3984.464468  	101.075225 
3985.901347  	101.060136 
3987.338225  	101.049295 
3988.775104  	101.066046 
3990.211983  	101.126834 
3991.648861  	101.169041 
3993.085740  	101.118051 
3994.522619  	101.042737 
3995.959497  	101.058000 
3997.396376  	101.122956 
3998.833255  	101.119202 
4000.270133  	101.065845 