x               y
399.452262  	33.333895
400.889141  	33.276945
402.326019  	33.10503
403.762898  	33.1931
405.199776  	32.420712
406.636655  	32.943794
408.073534  	33.476373
409.510412  	32.283691
410.947291  	32.233957
412.38417  	32.973717
413.821048  	33.375923
415.257927  	33.323253
416.694806  	33.006121
418.131684  	33.64607
419.568563  	33.368589
421.005441  	32.570007
422.44232  	32.835002
423.879199  	31.982842
425.316077  	32.000472
426.752956  	33.223094
428.189835  	32.550576
429.626713  	32.346818
431.063592  	32.853812
432.500471  	32.119205
433.937349  	32.362372
435.374228  	33.096492
436.811106  	32.962104
438.247985  	33.231095
439.684864  	33.111883
441.121742  	32.747627
442.558621  	32.742226
443.9955  	32.876469
445.432378  	33.470726
446.869257  	33.373941
448.306136  	33.140969
449.743014  	33.624493
451.179893  	33.212792
452.616772  	32.855896
454.05365  	33.192709
455.490529  	32.936544
456.927407  	33.227562
458.364286  	33.720433
459.801165  	33.380558
461.238043  	33.364895
462.674922  	33.25506
464.111801  	33.381003
465.548679  	33.691535
466.985558  	33.550866
468.422437  	33.495699
469.859315  	33.18839
471.296194  	33.007986
472.733072  	33.52773
474.169951  	33.256502
475.60683  	33.275326
477.043708  	33.789408
478.480587  	33.405369
479.917466  	33.448928
481.354344  	33.840898
482.791223  	33.579674
484.228102  	33.531987
485.66498  	33.318531
487.101859  	33.072924
488.538738  	33.209392
489.975616  	32.99726
491.412495  	33.268881
492.849373  	33.783424
494.286252  	33.599134
495.723131  	33.898616
497.160009  	34.195772
498.596888  	33.843691
500.033767  	33.805683
501.470645  	33.914853
502.907524  	34.248482
504.344403  	34.581099
505.781281  	34.156114
507.21816  	33.961182
508.655038  	34.2015
510.091917  	34.137342
511.528796  	34.217042
512.965674  	34.305129
514.402553  	34.245424
515.839432  	34.233659
517.27631  	34.111071
518.713189  	34.226086
520.150068  	34.515
521.586946  	34.655872
523.023825  	34.741812
524.460704  	34.6629
525.897582  	34.805038
527.334461  	35.026437
528.771339  	34.78258
530.208218  	34.794541
531.645097  	35.044364
533.081975  	35.06263
534.518854  	35.213513
535.955733  	35.276264
537.392611  	35.249065
538.82949  	35.450698
540.266369  	35.543864
541.703247  	35.612748
543.140126  	35.607675
544.577004  	35.509134
546.013883  	35.757907
547.450762  	35.881236
548.88764  	35.793363
550.324519  	35.938356
551.761398  	35.995449
553.198276  	36.097571
554.635155  	36.258899
556.072034  	36.196835
557.508912  	36.314987
558.945791  	36.462932
560.38267  	36.486861
561.819548  	36.607248
563.256427  	36.598252
564.693305  	36.722337
566.130184  	36.970598
567.567063  	36.982887
569.003941  	37.156984
570.44082  	37.23023
571.877699  	37.03762
573.314577  	37.169012
574.751456  	37.28044
576.188335  	37.288264
577.625213  	37.531428
579.062092  	37.628225
580.49897  	37.688457
581.935849  	37.815841
583.372728  	37.838566
584.809606  	38.014388
586.246485  	38.175724
587.683364  	38.265811
589.120242  	38.461011
590.557121  	38.499392
591.994  	38.579166
593.430878  	38.798317
594.867757  	38.873541
596.304636  	38.999728
597.741514  	39.074928
599.178393  	39.06047
600.615271  	39.252949
602.05215  	39.402492
603.489029  	39.492772
604.925907  	39.682352
606.362786  	39.847577
607.799665  	39.970994
609.236543  	40.069311
610.673422  	40.160566
612.110301  	40.326674
613.547179  	40.484763
614.984058  	40.613545
616.420936  	40.773876
617.857815  	40.897637
619.294694  	41.032969
620.731572  	41.185411
622.168451  	41.353597
623.60533  	41.525642
625.042208  	41.629469
626.479087  	41.781005
627.915966  	41.966762
629.352844  	41.992572
630.789723  	42.121951
632.226602  	42.322063
633.66348  	42.417747
635.100359  	42.568303
636.537237  	42.737565
637.974116  	42.893164
639.410995  	43.092018
640.847873  	43.253511
642.284752  	43.429997
643.721631  	43.579048
645.158509  	43.709536
646.595388  	43.854273
648.032267  	44.002018
649.469145  	44.146605
650.906024  	44.335995
652.342902  	44.454459
653.779781  	44.598842
655.21666  	44.834154
656.653538  	44.998153
658.090417  	45.17409
659.527296  	45.383381
660.964174  	45.572374
662.401053  	45.775
663.837932  	45.922041
665.27481  	45.975428
666.711689  	46.113595
668.148568  	46.34478
669.585446  	46.662743
671.022325  	46.755593
672.459203  	46.910357
673.896082  	47.138107
675.332961  	47.319208
676.769839  	47.509076
678.206718  	47.735188
679.643597  	47.867605
681.080475  	48.071918
682.517354  	48.278847
683.954233  	48.42806
685.391111  	48.658632
686.82799  	48.849526
688.264868  	49.002421
689.701747  	49.221642
691.138626  	49.425257
692.575504  	49.716343
694.012383  	49.976692
695.449262  	50.143689
696.88614  	50.36356
698.323019  	50.527543
699.759898  	50.735262
701.196776  	51.007105
702.633655  	51.133154
704.070533  	51.311981
705.507412  	51.568429
706.944291  	51.785036
708.381169  	52.064961
709.818048  	52.266313
711.254927  	52.439076
712.691805  	52.722735
714.128684  	52.938998
715.565563  	53.116406
717.002441  	53.300572
718.43932  	53.44586
719.876199  	53.655209
721.313077  	53.911297
722.749956  	54.149348
724.186834  	54.413446
725.623713  	54.609621
727.060592  	54.801494
728.49747  	55.071775
729.934349  	55.315911
731.371228  	55.567395
732.808106  	55.783598
734.244985  	55.986471
735.681864  	56.262797
737.118742  	56.480274
738.555621  	56.714168
739.992499  	57.023544
741.429378  	57.204321
742.866257  	57.364796
744.303135  	57.670654
745.740014  	57.995336
747.176893  	58.217524
748.613771  	58.39808
750.05065  	58.67445
751.487529  	58.925918
752.924407  	59.069019
754.361286  	59.315091
755.798165  	59.629446
757.235043  	59.892507
758.671922  	60.158908
760.1088  	60.396864
761.545679  	60.633092
762.982558  	60.885733
764.419436  	61.129651
765.856315  	61.397379
767.293194  	61.606545
768.730072  	61.821682
770.166951  	62.140646
771.60383  	62.41565
773.040708  	62.655818
774.477587  	62.876105
775.914465  	63.070519
777.351344  	63.381776
778.788223  	63.660652
780.225101  	63.856579
781.66198  	64.164576
783.098859  	64.451754
784.535737  	64.685951
785.972616  	64.969017
787.409495  	65.215763
788.846373  	65.473744
790.283252  	65.756683
791.720131  	66.037155
793.157009  	66.343128
794.593888  	66.563263
796.030766  	66.763743
797.467645  	67.029843
798.904524  	67.27867
800.341402  	67.574985
801.778281  	67.857258
803.21516  	68.088333
804.652038  	68.416281
806.088917  	68.7284
807.525796  	68.9684
808.962674  	69.20081
810.399553  	69.396057
811.836431  	69.661799
813.27331  	69.969751
814.710189  	70.246278
816.147067  	70.570803
817.583946  	70.83375
819.020825  	71.05972
820.457703  	71.365501
821.894582  	71.640706
823.331461  	71.912925
824.768339  	72.197604
826.205218  	72.454924
827.642097  	72.749867
829.078975  	73.003212
830.515854  	73.269497
831.952732  	73.638138
833.389611  	73.953407
834.82649  	74.23654
836.263368  	74.503765
837.700247  	74.699742
839.137126  	74.946735
840.574004  	75.218208
842.010883  	75.485208
843.447762  	75.788222
844.88464  	76.023343
846.321519  	76.241528
847.758397  	76.509225
849.195276  	76.788658
850.632155  	77.104355
852.069033  	77.381109
853.505912  	77.628506
854.942791  	77.908338
856.379669  	78.152959
857.816548  	78.408055
859.253427  	78.658972
860.690305  	78.885643
862.127184  	79.177114
863.564063  	79.418146
865.000941  	79.634391
866.43782  	79.943147
867.874698  	80.188568
869.311577  	80.39577
870.748456  	80.650525
872.185334  	80.900781
873.622213  	81.190596
875.059092  	81.443167
876.49597  	81.642203
877.932849  	81.88349
879.369728  	82.093142
880.806606  	82.310697
882.243485  	82.553249
883.680363  	82.745177
885.117242  	82.985571
886.554121  	83.23369
887.990999  	83.436327
889.427878  	83.685867
890.864757  	83.916272
892.301635  	84.115498
893.738514  	84.321174
895.175393  	84.518097
896.612271  	84.764159
898.04915  	84.9966
899.486029  	85.197596
900.922907  	85.423805
902.359786  	85.58773
903.796664  	85.750994
905.233543  	85.971871
906.670422  	86.170177
908.1073  	86.39671
909.544179  	86.606601
910.981058  	86.752297
912.417936  	86.924254
913.854815  	87.09191
915.291694  	87.259275
916.728572  	87.440359
918.165451  	87.595803
919.602329  	87.777121
921.039208  	87.937156
922.476087  	88.067646
923.912965  	88.240092
925.349844  	88.378303
926.786723  	88.501694
928.223601  	88.643507
929.66048  	88.75901
931.097359  	88.898109
932.534237  	89.017215
933.971116  	89.124773
935.407995  	89.276888
936.844873  	89.359231
938.281752  	89.43699
939.71863  	89.577464
941.155509  	89.675869
942.592388  	89.781996
944.029266  	89.884292
945.466145  	89.980264
946.903024  	90.138858
948.339902  	90.217841
949.776781  	90.254638
951.21366  	90.366068
952.650538  	90.442425
954.087417  	90.532929
955.524295  	90.661637
956.961174  	90.750592
958.398053  	90.861831
959.834931  	90.970177
961.27181  	91.079509
962.708689  	91.202984
964.145567  	91.246623
965.582446  	91.300796
967.019325  	91.398036
968.456203  	91.47499
969.893082  	91.592927
971.329961  	91.696937
972.766839  	91.794201
974.203718  	91.945282
975.640596  	92.050059
977.077475  	92.140254
978.514354  	92.225507
979.951232  	92.270978
981.388111  	92.374475
982.82499  	92.467242
984.261868  	92.517559
985.698747  	92.593296
987.135626  	92.633792
988.572504  	92.706155
990.009383  	92.798381
991.446261  	92.809913
992.88314  	92.857117
994.320019  	92.913681
995.756897  	92.923623
997.193776  	92.964151
998.630655  	92.982886
1000.067533  	93.024606
1001.504412  	93.110989
1002.941291  	93.13892
1004.378169  	93.177137
1005.815048  	93.21733
1007.251926  	93.2357
1008.688805  	93.307732
1010.125684  	93.349465
1011.562562  	93.375166
1012.999441  	93.427287
1014.43632  	93.432158
1015.873198  	93.457313
1017.310077  	93.475226
1018.746956  	93.453598
1020.183834  	93.491845
1021.620713  	93.505147
1023.057592  	93.49936
1024.49447  	93.543455
1025.931349  	93.551614
1027.368227  	93.583877
1028.805106  	93.628089
1030.241985  	93.610189
1031.678863  	93.626176
1033.115742  	93.636569
1034.552621  	93.641281
1035.989499  	93.68627
1037.426378  	93.670651
1038.863257  	93.680865
1040.300135  	93.735692
1041.737014  	93.726567
1043.173892  	93.76187
1044.610771  	93.807391
1046.04765  	93.79383
1047.484528  	93.808569
1048.921407  	93.800322
1050.358286  	93.797864
1051.795164  	93.844305
1053.232043  	93.853951
1054.668922  	93.861984
1056.1058  	93.854539
1057.542679  	93.836574
1058.979558  	93.876379
1060.416436  	93.888234
1061.853315  	93.908865
1063.290193  	93.963765
1064.727072  	93.94542
1066.163951  	93.943358
1067.600829  	93.971141
1069.037708  	93.968809
1070.474587  	93.994743
1071.911465  	94.002671
1073.348344  	94.023007
1074.785223  	94.084596
1076.222101  	94.095409
1077.65898  	94.127906
1079.095858  	94.167812
1080.532737  	94.158195
1081.969616  	94.187089
1083.406494  	94.195966
1084.843373  	94.204847
1086.280252  	94.278421
1087.71713  	94.293076
1089.154009  	94.2927
1090.590888  	94.332414
1092.027766  	94.364989
1093.464645  	94.439795
1094.901524  	94.487997
1096.338402  	94.492383
1097.775281  	94.543119
1099.212159  	94.578564
1100.649038  	94.608919
1102.085917  	94.661881
1103.522795  	94.685886
1104.959674  	94.715676
1106.396553  	94.734707
1107.833431  	94.730801
1109.27031  	94.723053
1110.707189  	94.672877
1112.144067  	94.63325
1113.580946  	94.6116
1115.017824  	94.572743
1116.454703  	94.568769
1117.891582  	94.546456
1119.32846  	94.508371
1120.765339  	94.532688
1122.202218  	94.540623
1123.639096  	94.524147
1125.075975  	94.517536
1126.512854  	94.486174
1127.949732  	94.468279
1129.386611  	94.457423
1130.82349  	94.446432
1132.260368  	94.455934
1133.697247  	94.433263
1135.134125  	94.419422
1136.571004  	94.437114
1138.007883  	94.429604
1139.444761  	94.441883
1140.88164  	94.459936
1142.318519  	94.442604
1143.755397  	94.428463
1145.192276  	94.421232
1146.629155  	94.443979
1148.066033  	94.461949
1149.502912  	94.425759
1150.93979  	94.411743
1152.376669  	94.408816
1153.813548  	94.384427
1155.250426  	94.36398
1156.687305  	94.309398
1158.124184  	94.275022
1159.561062  	94.290032
1160.997941  	94.285708
1162.43482  	94.3053
1163.871698  	94.34064
1165.308577  	94.36083
1166.745456  	94.401972
1168.182334  	94.408336
1169.619213  	94.40451
1171.056091  	94.429062
1172.49297  	94.411623
1173.929849  	94.398909
1175.366727  	94.410496
1176.803606  	94.405318
1178.240485  	94.416577
1179.677363  	94.414112
1181.114242  	94.41152
1182.551121  	94.440845
1183.987999  	94.442153
1185.424878  	94.445404
1186.861756  	94.46412
1188.298635  	94.472553
1189.735514  	94.493846
1191.172392  	94.48405
1192.609271  	94.476796
1194.04615  	94.511155
1195.483028  	94.502848
1196.919907  	94.485465
1198.356786  	94.492758
1199.793664  	94.499169
1201.230543  	94.526397
1202.667422  	94.520291
1204.1043  	94.512436
1205.541179  	94.547579
1206.978057  	94.52127
1208.414936  	94.482938
1209.851815  	94.488556
1211.288693  	94.479711
1212.725572  	94.498707
1214.162451  	94.514031
1215.599329  	94.492017
1217.036208  	94.480813
1218.473087  	94.44444
1219.909965  	94.429951
1221.346844  	94.456033
1222.783722  	94.437073
1224.220601  	94.425272
1225.65748  	94.431261
1227.094358  	94.429384
1228.531237  	94.448565
1229.968116  	94.430302
1231.404994  	94.416775
1232.841873  	94.442112
1234.278752  	94.417065
1235.71563  	94.403277
1237.152509  	94.411963
1238.589388  	94.38223
1240.026266  	94.379139
1241.463145  	94.377411
1242.900023  	94.356323
1244.336902  	94.354
1245.773781  	94.330032
1247.210659  	94.313303
1248.647538  	94.298831
1250.084417  	94.253895
1251.521295  	94.248042
1252.958174  	94.248039
1254.395053  	94.228518
1255.831931  	94.232897
1257.26881  	94.214696
1258.705688  	94.189675
1260.142567  	94.177045
1261.579446  	94.157952
1263.016324  	94.166669
1264.453203  	94.157918
1265.890082  	94.143521
1267.32696  	94.173325
1268.763839  	94.172442
1270.200718  	94.168731
1271.637596  	94.188599
1273.074475  	94.188126
1274.511353  	94.225827
1275.948232  	94.262266
1277.385111  	94.261451
1278.821989  	94.287455
1280.258868  	94.296657
1281.695747  	94.301579
1283.132625  	94.337592
1284.569504  	94.356526
1286.006383  	94.373498
1287.443261  	94.364879
1288.88014  	94.348814
1290.317019  	94.387573
1291.753897  	94.407933
1293.190776  	94.422671
1294.627654  	94.441432
1296.064533  	94.401262
1297.501412  	94.394405
1298.93829  	94.41586
1300.375169  	94.403413
1301.812048  	94.423107
1303.248926  	94.428285
1304.685805  	94.421668
1306.122684  	94.434752
1307.559562  	94.430071
1308.996441  	94.439546
1310.433319  	94.448156
1311.870198  	94.415546
1313.307077  	94.403765
1314.743955  	94.40659
1316.180834  	94.393877
1317.617713  	94.385915
1319.054591  	94.380432
1320.49147  	94.407111
1321.928349  	94.419227
1323.365227  	94.410996
1324.802106  	94.428939
1326.238985  	94.426435
1327.675863  	94.39812
1329.112742  	94.388194
1330.54962  	94.350263
1331.986499  	94.335697
1333.423378  	94.340878
1334.860256  	94.296037
1336.297135  	94.239815
1337.734014  	94.138075
1339.170892  	94.063433
1340.607771  	94.159655
1342.04465  	94.227104
1343.481528  	94.221828
1344.918407  	94.227766
1346.355285  	94.216809
1347.792164  	94.220259
1349.229043  	94.217474
1350.665921  	94.20442
1352.1028  	94.205184
1353.539679  	94.180779
1354.976557  	94.160147
1356.413436  	94.167161
1357.850315  	94.155624
1359.287193  	94.13769
1360.724072  	94.100123
1362.160951  	94.049269
1363.597829  	94.084695
1365.034708  	94.11798
1366.471586  	94.079504
1367.908465  	94.032203
1369.345344  	94.012281
1370.782222  	93.996579
1372.219101  	93.932776
1373.65598  	93.851803
1375.092858  	93.874542
1376.529737  	93.874861
1377.966616  	93.811657
1379.403494  	93.782376
1380.840373  	93.764815
1382.277251  	93.78335
1383.71413  	93.820088
1385.151009  	93.789989
1386.587887  	93.77899
1388.024766  	93.829745
1389.461645  	93.861402
1390.898523  	93.859387
1392.335402  	93.825886
1393.772281  	93.810997
1395.209159  	93.84523
1396.646038  	93.840323
1398.082917  	93.835844
1399.519795  	93.931969
1400.956674  	94.020817
1402.393552  	94.015702
1403.830431  	93.999127
1405.26731  	94.037716
1406.704188  	94.104018
1408.141067  	94.113435
1409.577946  	94.117589
1411.014824  	94.099319
1412.451703  	94.104186
1413.888582  	94.128918
1415.32546  	94.076037
1416.762339  	94.003458
1418.199217  	94.03829
1419.636096  	94.160563
1421.072975  	94.184493
1422.509853  	94.097675
1423.946732  	94.080715
1425.383611  	94.162752
1426.820489  	94.147346
1428.257368  	94.104268
1429.694247  	94.162923
1431.131125  	94.169297
1432.568004  	94.135691
1434.004883  	94.061264
1435.441761  	93.998209
1436.87864  	94.137741
1438.315518  	94.218008
1439.752397  	94.099697
1441.189276  	94.058864
1442.626154  	94.052277
1444.063033  	94.067171
1445.499912  	94.0528
1446.93679  	93.995654
1448.373669  	94.03917
1449.810548  	94.044829
1451.247426  	93.989855
1452.684305  	93.983274
1454.121183  	93.906174
1455.558062  	93.827618
1456.994941  	93.901557
1458.431819  	93.999765
1459.868698  	93.988487
1461.305577  	93.957704
1462.742455  	93.875225
1464.179334  	93.85224
1465.616213  	93.925838
1467.053091  	93.952029
1468.48997  	93.918869
1469.926849  	93.849116
1471.363727  	93.802396
1472.800606  	93.863448
1474.237484  	93.864223
1475.674363  	93.802054
1477.111242  	93.859328
1478.54812  	93.895624
1479.984999  	93.843511
1481.421878  	93.798515
1482.858756  	93.818399
1484.295635  	93.794313
1485.732514  	93.738653
1487.169392  	93.742137
1488.606271  	93.687012
1490.043149  	93.64157
1491.480028  	93.722977
1492.916907  	93.6571
1494.353785  	93.568098
1495.790664  	93.541421
1497.227543  	93.528579
1498.664421  	93.517996
1500.1013  	93.45565
1501.538179  	93.383608
1502.975057  	93.343396
1504.411936  	93.317148
1505.848815  	93.277071
1507.285693  	93.183809
1508.722572  	93.168289
1510.15945  	93.132225
1511.596329  	93.12037
1513.033208  	93.104978
1514.470086  	93.023838
1515.906965  	92.893038
1517.343844  	92.898254
1518.780722  	92.880058
1520.217601  	92.76128
1521.65448  	92.825618
1523.091358  	92.834966
1524.528237  	92.649926
1525.965115  	92.609541
1527.401994  	92.600967
1528.838873  	92.575618
1530.275751  	92.557884
1531.71263  	92.409475
1533.149509  	92.328629
1534.586387  	92.378788
1536.023266  	92.212148
1537.460145  	92.101654
1538.897023  	92.037298
1540.333902  	92.023376
1541.77078  	92.129959
1543.207659  	91.875366
1544.644538  	91.666601
1546.081416  	91.711813
1547.518295  	91.635615
1548.955174  	91.486501
1550.392052  	91.364621
1551.828931  	91.283793
1553.26581  	91.209924
1554.702688  	91.093535
1556.139567  	90.96711
1557.576446  	90.859255
1559.013324  	90.717182
1560.450203  	90.905981
1561.887081  	90.581979
1563.32396  	90.320463
1564.760839  	90.245295
1566.197717  	90.040879
1567.634596  	89.793506
1569.071475  	89.710968
1570.508353  	89.675897
1571.945232  	89.529629
1573.382111  	89.234061
1574.818989  	89.010018
1576.255868  	88.908562
1577.692746  	88.683711
1579.129625  	88.392943
1580.566504  	88.163387
1582.003382  	87.888167
1583.440261  	87.648505
1584.87714  	87.347514
1586.314018  	86.961017
1587.750897  	86.678518
1589.187776  	86.334131
1590.624654  	85.982746
1592.061533  	85.625456
1593.498412  	85.15634
1594.93529  	84.775718
1596.372169  	84.399722
1597.809047  	83.955582
1599.245926  	83.574128
1600.682805  	83.062931
1602.119683  	82.526634
1603.556562  	82.050554
1604.993441  	81.488518
1606.430319  	80.973975
1607.867198  	80.479246
1609.304077  	79.897537
1610.740955  	79.396717
1612.177834  	78.840252
1613.614712  	78.234699
1615.051591  	77.749583
1616.48847  	77.260447
1617.925348  	76.919191
1619.362227  	76.353028
1620.799106  	75.601895
1622.235984  	75.160962
1623.672863  	74.864141
1625.109742  	74.444214
1626.54662  	74.090242
1627.983499  	73.705533
1629.420378  	73.493051
1630.857256  	73.28217
1632.294135  	72.916582
1633.731013  	72.788047
1635.167892  	72.868449
1636.604771  	73.06416
1638.041649  	73.128766
1639.478528  	72.986611
1640.915407  	73.133567
1642.352285  	73.369012
1643.789164  	73.353619
1645.226043  	73.548461
1646.662921  	74.055296
1648.0998  	74.600281
1649.536678  	74.892408
1650.973557  	74.854049
1652.410436  	74.901493
1653.847314  	76.531678
1655.284193  	76.827759
1656.721072  	76.824735
1658.15795  	77.189994
1659.594829  	77.480973
1661.031708  	77.893209
1662.468586  	78.447804
1663.905465  	79.036399
1665.342344  	79.514069
1666.779222  	79.848549
1668.216101  	80.305924
1669.652979  	80.988125
1671.089858  	81.55365
1672.526737  	81.950488
1673.963615  	82.272345
1675.400494  	82.805337
1676.837373  	83.534835
1678.274251  	83.796874
1679.71113  	84.136475
1681.148009  	84.658565
1682.584887  	84.940406
1684.021766  	85.532088
1685.458644  	86.683744
1686.895523  	86.808951
1688.332402  	87.109093
1689.76928  	87.628842
1691.206159  	88.104783
1692.643038  	88.5497
1694.079916  	88.797428
1695.516795  	89.184245
1696.953674  	89.798577
1698.390552  	89.890164
1699.827431  	90.188163
1701.26431  	91.15389
1702.701188  	91.058282
1704.138067  	91.234436
1705.574945  	91.688409
1707.011824  	92.045026
1708.448703  	92.325698
1709.885581  	92.603282
1711.32246  	92.906961
1712.759339  	93.19175
1714.196217  	93.432426
1715.633096  	93.774078
1717.069975  	94.097436
1718.506853  	94.434722
1719.943732  	94.793405
1721.38061  	94.929931
1722.817489  	95.113572
1724.254368  	95.408063
1725.691246  	95.644842
1727.128125  	95.904215
1728.565004  	96.041937
1730.001882  	96.1501
1731.438761  	96.330926
1732.87564  	96.429454
1734.312518  	96.621973
1735.749397  	97.003343
1737.186276  	96.967069
1738.623154  	97.060923
1740.060033  	97.313005
1741.496911  	97.367009
1742.93379  	97.429235
1744.370669  	97.566615
1745.807547  	97.65788
1747.244426  	97.784387
1748.681305  	97.89414
1750.118183  	98.03713
1751.555062  	98.214904
1752.991941  	98.341856
1754.428819  	98.439865
1755.865698  	98.492029
1757.302576  	98.579851
1758.739455  	98.696556
1760.176334  	98.695459
1761.613212  	98.770941
1763.050091  	98.963536
1764.48697  	99.013894
1765.923848  	99.047953
1767.360727  	99.082332
1768.797606  	99.123541
1770.234484  	99.205934
1771.671363  	99.272977
1773.108242  	99.40309
1774.54512  	99.461236
1775.981999  	99.417179
1777.418877  	99.467439
1778.855756  	99.492477
1780.292635  	99.522232
1781.729513  	99.659617
1783.166392  	99.689038
1784.603271  	99.707727
1786.040149  	99.829599
1787.477028  	99.866197
1788.913907  	99.842983
1790.350785  	99.830621
1791.787664  	99.8747
1793.224542  	100.140935
1794.661421  	100.080703
1796.0983  	99.943209
1797.535178  	100.023052
1798.972057  	100.014898
1800.408936  	100.027654
1801.845814  	100.123723
1803.282693  	100.130528
1804.719572  	100.203863
1806.15645  	100.215431
1807.593329  	100.203512
1809.030207  	100.281927
1810.467086  	100.273249
1811.903965  	100.306872
1813.340843  	100.415878
1814.777722  	100.410918
1816.214601  	100.439022
1817.651479  	100.459356
1819.088358  	100.453927
1820.525237  	100.498464
1821.962115  	100.47188
1823.398994  	100.469317
1824.835873  	100.542005
1826.272751  	100.56075
1827.70963  	100.534554
1829.146508  	100.533227
1830.583387  	100.605587
1832.020266  	100.693349
1833.457144  	100.652475
1834.894023  	100.653809
1836.330902  	100.702449
1837.76778  	100.679692
1839.204659  	100.737787
1840.641538  	100.771981
1842.078416  	100.704603
1843.515295  	100.761381
1844.952173  	100.813479
1846.389052  	100.76811
1847.825931  	100.745847
1849.262809  	100.726969
1850.699688  	100.758038
1852.136567  	100.779143
1853.573445  	100.755676
1855.010324  	100.808546
1856.447203  	100.810911
1857.884081  	100.810827
1859.32096  	100.875197
1860.757839  	100.849723
1862.194717  	100.866693
1863.631596  	100.877826
1865.068474  	100.816435
1866.505353  	100.82625
1867.942232  	100.804968
1869.37911  	100.817582
1870.815989  	100.890987
1872.252868  	100.835472
1873.689746  	100.888676
1875.126625  	100.972456
1876.563504  	100.908008
1878.000382  	100.927626
1879.437261  	100.892933
1880.874139  	100.879253
1882.311018  	100.991018
1883.747897  	100.951572
1885.184775  	100.955083
1886.621654  	101.030975
1888.058533  	100.940247
1889.495411  	100.933229
1890.93229  	100.949565
1892.369169  	100.89221
1893.806047  	100.920895
1895.242926  	100.886139
1896.679805  	100.888471
1898.116683  	100.925561
1899.553562  	100.873061
1900.99044  	100.956043
1902.427319  	100.995871
1903.864198  	100.918823
1905.301076  	100.970989
1906.737955  	100.852032
1908.174834  	100.77392
1909.611712  	100.919988
1911.048591  	100.91694
1912.48547  	100.983641
1913.922348  	101.045954
1915.359227  	100.948529
1916.796105  	100.951662
1918.232984  	100.883847
1919.669863  	100.815139
1921.106741  	100.82513
1922.54362  	100.77618
1923.980499  	100.834304
1925.417377  	100.904106
1926.854256  	100.81256
1928.291135  	100.865815
1929.728013  	100.875972
1931.164892  	100.863713
1932.601771  	100.943985
1934.038649  	100.849315
1935.475528  	100.801284
1936.912406  	100.854534
1938.349285  	100.854057
1939.786164  	100.924374
1941.223042  	100.873176
1942.659921  	100.846749
1944.0968  	100.996873
1945.533678  	100.879085
1946.970557  	100.840728
1948.407436  	100.920723
1949.844314  	100.742641
1951.281193  	100.787593
1952.718071  	100.824352
1954.15495  	100.748292
1955.591829  	100.805791
1957.028707  	100.725961
1958.465586  	100.712789
1959.902465  	100.845845
1961.339343  	100.75354
1962.776222  	100.759873
1964.213101  	100.824003
1965.649979  	100.730277
1967.086858  	100.745668
1968.523737  	100.648921
1969.960615  	100.568742
1971.397494  	100.633153
1972.834372  	100.520493
1974.271251  	100.603772
1975.70813  	100.660486
1977.145008  	100.608407
1978.581887  	100.833199
1980.018766  	100.718513
1981.455644  	100.586653
1982.892523  	100.64483
1984.329402  	100.469659
1985.76628  	100.455161
1987.203159  	100.473343
1988.640037  	100.406668
1990.076916  	100.4603
1991.513795  	100.359381
1992.950673  	100.258138
1994.387552  	100.315704
1995.824431  	100.190865
1997.261309  	100.260784
1998.698188  	100.477565
2000.135067  	100.227399
2001.571945  	100.230351
2003.008824  	100.274202
2004.445703  	100.194332
2005.882581  	100.383169
2007.31946  	100.202147
2008.756338  	100.021576
2010.193217  	100.067772
2011.630096  	99.901844
2013.066974  	100.131373
2014.503853  	100.278125
2015.940732  	100.024551
2017.37761  	100.078891
2018.814489  	100.017338
2020.251368  	99.932129
2021.688246  	99.919661
2023.125125  	99.676223
2024.562003  	99.902973
2025.998882  	100.120496
2027.435761  	99.931728
2028.872639  	100.117738
2030.309518  	100.025383
2031.746397  	99.637276
2033.183275  	99.623939
2034.620154  	99.570762
2036.057033  	99.551034
2037.493911  	99.685759
2038.93079  	99.859849
2040.367669  	100.011369
2041.804547  	99.742763
2043.241426  	99.632923
2044.678304  	99.83916
2046.115183  	99.731483
2047.552062  	99.668201
2048.98894  	99.634834
2050.425819  	99.503559
2051.862698  	99.626048
2053.299576  	99.610893
2054.736455  	99.434396
2056.173334  	99.443794
2057.610212  	99.453386
2059.047091  	99.487987
2060.483969  	99.505971
2061.920848  	99.468059
2063.357727  	99.550378
2064.794605  	99.495242
2066.231484  	99.401137
2067.668363  	99.46924
2069.105241  	99.444467
2070.54212  	99.443009
2071.978999  	99.420597
2073.415877  	99.270467
2074.852756  	99.212446
2076.289635  	99.130894
2077.726513  	99.160729
2079.163392  	99.397414
2080.60027  	99.397947
2082.037149  	99.274611
2083.474028  	99.189116
2084.910906  	99.107769
2086.347785  	99.236591
2087.784664  	99.350118
2089.221542  	99.319246
2090.658421  	99.298091
2092.0953  	99.181952
2093.532178  	99.170646
2094.969057  	99.215702
2096.405935  	99.061226
2097.842814  	99.058009
2099.279693  	99.140148
2100.716571  	99.144867
2102.15345  	99.258088
2103.590329  	99.22535
2105.027207  	99.148898
2106.464086  	99.235008
2107.900965  	99.20192
2109.337843  	99.163543
2110.774722  	99.174163
2112.2116  	99.134928
2113.648479  	99.175127
2115.085358  	99.146428
2116.522236  	99.132064
2117.959115  	99.235933
2119.395994  	99.180705
2120.832872  	99.145294
2122.269751  	99.189957
2123.70663  	99.122853
2125.143508  	99.171964
2126.580387  	99.228321
2128.017266  	99.165519
2129.454144  	99.184095
2130.891023  	99.148474
2132.327901  	99.134851
2133.76478  	99.21854
2135.201659  	99.146151
2136.638537  	99.072894
2138.075416  	99.061567
2139.512295  	99.117878
2140.949173  	99.287862
2142.386052  	99.227349
2143.822931  	99.109191
2145.259809  	99.174953
2146.696688  	99.241273
2148.133566  	99.283511
2149.570445  	99.114738
2151.007324  	99.024365
2152.444202  	99.196255
2153.881081  	99.160845
2155.31796  	99.398926
2156.754838  	99.737824
2158.191717  	99.351105
2159.628596  	99.300156
2161.065474  	99.53701
2162.502353  	99.529834
2163.939232  	99.713835
2165.37611  	99.514323
2166.812989  	99.323583
2168.249867  	99.621157
2169.686746  	99.636312
2171.123625  	99.515809
2172.560503  	99.463616
2173.997382  	99.371381
2175.434261  	99.555832
2176.871139  	99.699054
2178.308018  	99.730592
2179.744897  	99.864692
2181.181775  	99.82956
2182.618654  	99.868527
2184.055532  	99.916839
2185.492411  	99.728163
2186.92929  	99.688895
2188.366168  	99.703509
2189.803047  	99.687483
2191.239926  	99.793777
2192.676804  	99.834871
2194.113683  	99.884902
2195.550562  	99.913813
2196.98744  	99.902929
2198.424319  	100.006846
2199.861198  	99.912673
2201.298076  	99.75902
2202.734955  	99.834973
2204.171833  	99.847163
2205.608712  	99.859163
2207.045591  	99.887333
2208.482469  	99.840271
2209.919348  	99.973315
2211.356227  	100.100897
2212.793105  	100.086128
2214.229984  	100.060877
2215.666863  	100.011086
2217.103741  	100.109298
2218.54062  	100.145055
2219.977498  	99.977563
2221.414377  	100.008845
2222.851256  	100.085899
2224.288134  	100.101189
2225.725013  	100.173346
2227.161892  	100.073556
2228.59877  	100.082987
2230.035649  	100.251367
2231.472528  	100.162086
2232.909406  	100.083939
2234.346285  	100.123338
2235.783164  	100.138435
2237.220042  	100.243007
2238.656921  	100.249666
2240.093799  	100.227135
2241.530678  	100.353098
2242.967557  	100.378032
2244.404435  	100.346158
2245.841314  	100.344806
2247.278193  	100.312136
2248.715071  	100.339521
2250.15195  	100.368744
2251.588829  	100.413695
2253.025707  	100.485123
2254.462586  	100.497158
2255.899464  	100.513411
2257.336343  	100.534094
2258.773222  	100.543725
2260.2101  	100.588247
2261.646979  	100.621406
2263.083858  	100.626324
2264.520736  	100.634029
2265.957615  	100.639164
2267.394494  	100.675646
2268.831372  	100.661603
2270.268251  	100.641652
2271.70513  	100.695419
2273.142008  	100.743243
2274.578887  	100.76912
2276.015765  	100.795532
2277.452644  	100.779222
2278.889523  	100.773062
2280.326401  	100.802928
2281.76328  	100.788699
2283.200159  	100.769901
2284.637037  	100.760985
2286.073916  	100.768016
2287.510795  	100.786112
2288.947673  	100.773591
2290.384552  	100.760867
2291.82143  	100.74622
2293.258309  	100.717291
2294.695188  	100.700977
2296.132066  	100.680302
2297.568945  	100.660336
2299.005824  	100.671567
2300.442702  	100.630272
2301.879581  	100.632801
2303.31646  	100.677835
2304.753338  	100.634732
2306.190217  	100.599886
2307.627096  	100.598176
2309.063974  	100.562491
2310.500853  	100.523466
2311.937731  	100.511724
2313.37461  	100.577762
2314.811489  	100.613698
2316.248367  	100.539208
2317.685246  	100.526505
2319.122125  	100.527773
2320.559003  	100.458233
2321.995882  	100.456138
2323.432761  	100.479823
2324.869639  	100.523239
2326.306518  	100.623686
2327.743396  	100.687322
2329.180275  	100.77148
2330.617154  	100.872456
2332.054032  	100.910903
2333.490911  	100.990756
2334.92779  	101.044605
2336.364668  	101.030062
2337.801547  	101.071696
2339.238426  	101.103431
2340.675304  	101.076825
2342.112183  	101.038269
2343.549062  	100.983546
2344.98594  	100.982586
2346.422819  	101.032851
2347.859697  	100.946558
2349.296576  	100.75854
2350.733455  	100.680908
2352.170333  	100.826176
2353.607212  	101.060415
2355.044091  	101.210067
2356.480969  	101.346784
2357.917848  	101.392161
2359.354727  	101.410214
2360.791605  	101.499012
2362.228484  	101.487783
2363.665362  	101.502386
2365.102241  	101.588685
2366.53912  	101.643228
2367.975998  	101.756698
2369.412877  	101.848349
2370.849756  	101.883719
2372.286634  	101.900782
2373.723513  	101.883479
2375.160392  	101.875576
2376.59727  	101.836935
2378.034149  	101.784821
2379.471027  	101.73681
2380.907906  	101.637589
2382.344785  	101.608563
2383.781663  	101.681635
2385.218542  	101.720491
2386.655421  	101.739373
2388.092299  	101.759043
2389.529178  	101.765552
2390.966057  	101.786174
2392.402935  	101.784524
2393.839814  	101.779058
2395.276693  	101.812117
2396.713571  	101.827874
2398.15045  	101.830725
2399.587328  	101.829207
2401.024207  	101.833162
2402.461086  	101.878651
2403.897964  	101.884074
2405.334843  	101.856696
2406.771722  	101.862189
2408.2086  	101.851207
2409.645479  	101.871308
2411.082358  	101.918956
2412.519236  	101.920598
2413.956115  	101.9453
2415.392993  	101.974895
2416.829872  	101.991828
2418.266751  	102.0369
2419.703629  	102.026189
2421.140508  	102.008282
2422.577387  	102.044609
2424.014265  	102.051077
2425.451144  	102.057363
2426.888023  	102.06363
2428.324901  	102.062047
2429.76178  	102.099371
2431.198659  	102.089508
2432.635537  	102.067481
2434.072416  	102.106071
2435.509294  	102.121398
2436.946173  	102.150053
2438.383052  	102.187688
2439.81993  	102.166348
2441.256809  	102.151695
2442.693688  	102.144484
2444.130566  	102.161818
2445.567445  	102.205531
2447.004324  	102.189752
2448.441202  	102.202237
2449.878081  	102.246733
2451.314959  	102.224418
2452.751838  	102.227749
2454.188717  	102.246282
2455.625595  	102.226946
2457.062474  	102.226186
2458.499353  	102.218974
2459.936231  	102.235166
2461.37311  	102.280009
2462.809989  	102.286676
2464.246867  	102.308606
2465.683746  	102.313351
2467.120625  	102.279507
2468.557503  	102.305098
2469.994382  	102.337864
2471.43126  	102.355823
2472.868139  	102.389484
2474.305018  	102.378995
2475.741896  	102.379509
2477.178775  	102.418234
2478.615654  	102.435722
2480.052532  	102.451746
2481.489411  	102.440875
2482.92629  	102.406709
2484.363168  	102.405025
2485.800047  	102.409378
2487.236925  	102.411448
2488.673804  	102.414889
2490.110683  	102.424731
2491.547561  	102.444395
2492.98444  	102.433595
2494.421319  	102.43843
2495.858197  	102.462911
2497.295076  	102.438334
2498.731955  	102.424056
2500.168833  	102.424178
2501.605712  	102.425733
2503.042591  	102.473464
2504.479469  	102.470131
2505.916348  	102.448403
2507.353226  	102.50434
2508.790105  	102.489203
2510.226984  	102.433811
2511.663862  	102.486255
2513.100741  	102.52554
2514.53762  	102.500974
2515.974498  	102.511675
2517.411377  	102.550848
2518.848256  	102.571577
2520.285134  	102.566923
2521.722013  	102.553959
2523.158891  	102.550187
2524.59577  	102.562392
2526.032649  	102.567744
2527.469527  	102.553052
2528.906406  	102.56576
2530.343285  	102.578248
2531.780163  	102.560247
2533.217042  	102.593259
2534.653921  	102.637097
2536.090799  	102.634645
2537.527678  	102.645718
2538.964557  	102.640561
2540.401435  	102.625374
2541.838314  	102.640282
2543.275192  	102.63817
2544.712071  	102.648957
2546.14895  	102.659994
2547.585828  	102.645494
2549.022707  	102.687715
2550.459586  	102.713536
2551.896464  	102.679517
2553.333343  	102.687014
2554.770222  	102.68092
2556.2071  	102.65325
2557.643979  	102.671794
2559.080857  	102.670194
2560.517736  	102.658728
2561.954615  	102.68376
2563.391493  	102.697717
2564.828372  	102.691534
2566.265251  	102.683481
2567.702129  	102.690742
2569.139008  	102.699988
2570.575887  	102.687289
2572.012765  	102.689787
2573.449644  	102.710311
2574.886523  	102.743121
2576.323401  	102.781067
2577.76028  	102.755493
2579.197158  	102.711758
2580.634037  	102.722809
2582.070916  	102.736345
2583.507794  	102.74257
2584.944673  	102.753699
2586.381552  	102.749946
2587.81843  	102.734667
2589.255309  	102.713119
2590.692188  	102.719213
2592.129066  	102.731969
2593.565945  	102.711449
2595.002823  	102.726286
2596.439702  	102.75825
2597.876581  	102.743471
2599.313459  	102.734943
2600.750338  	102.732026
2602.187217  	102.721187
2603.624095  	102.727889
2605.060974  	102.718414
2606.497853  	102.708275
2607.934731  	102.730931
2609.37161  	102.751393
2610.808489  	102.752657
2612.245367  	102.745683
2613.682246  	102.756025
2615.119124  	102.770047
2616.556003  	102.757779
2617.992882  	102.759492
2619.42976  	102.762902
2620.866639  	102.745163
2622.303518  	102.760991
2623.740396  	102.774872
2625.177275  	102.747941
2626.614154  	102.741876
2628.051032  	102.763891
2629.487911  	102.77771
2630.924789  	102.765675
2632.361668  	102.748284
2633.798547  	102.763343
2635.235425  	102.771796
2636.672304  	102.75319
2638.109183  	102.745973
2639.546061  	102.74463
2640.98294  	102.743334
2642.419819  	102.733391
2643.856697  	102.715833
2645.293576  	102.732834
2646.730454  	102.753801
2648.167333  	102.744243
2649.604212  	102.738864
2651.04109  	102.729222
2652.477969  	102.709126
2653.914848  	102.699383
2655.351726  	102.69612
2656.788605  	102.69742
2658.225484  	102.687697
2659.662362  	102.676016
2661.099241  	102.685503
2662.53612  	102.683412
2663.972998  	102.673877
2665.409877  	102.677198
2666.846755  	102.668099
2668.283634  	102.663311
2669.720513  	102.667688
2671.157391  	102.661906
2672.59427  	102.66677
2674.031149  	102.667595
2675.468027  	102.656422
2676.904906  	102.66021
2678.341785  	102.661778
2679.778663  	102.652404
2681.215542  	102.63975
2682.65242  	102.63596
2684.089299  	102.655852
2685.526178  	102.65258
2686.963056  	102.624463
2688.399935  	102.62764
2689.836814  	102.63279
2691.273692  	102.622514
2692.710571  	102.621208
2694.14745  	102.607232
2695.584328  	102.586128
2697.021207  	102.585559
2698.458086  	102.600747
2699.894964  	102.607796
2701.331843  	102.590865
2702.768721  	102.587032
2704.2056  	102.598501
2705.642479  	102.578526
2707.079357  	102.560767
2708.516236  	102.569524
2709.953115  	102.564157
2711.389993  	102.548142
2712.826872  	102.540777
2714.263751  	102.540824
2715.700629  	102.536007
2717.137508  	102.516146
2718.574386  	102.507039
2720.011265  	102.511528
2721.448144  	102.506083
2722.885022  	102.497328
2724.321901  	102.492783
2725.75878  	102.496561
2727.195658  	102.491403
2728.632537  	102.464334
2730.069416  	102.457071
2731.506294  	102.456178
2732.943173  	102.427079
2734.380052  	102.4149
2735.81693  	102.417367
2737.253809  	102.40572
2738.690687  	102.401848
2740.127566  	102.392677
2741.564445  	102.374236
2743.001323  	102.366593
2744.438202  	102.351164
2745.875081  	102.33115
2747.311959  	102.324587
2748.748838  	102.322999
2750.185717  	102.314227
2751.622595  	102.294913
2753.059474  	102.288307
2754.496352  	102.287706
2755.933231  	102.2573
2757.37011  	102.229266
2758.806988  	102.229198
2760.243867  	102.225197
2761.680746  	102.211945
2763.117624  	102.193757
2764.554503  	102.17272
2765.991382  	102.163273
2767.42826  	102.15457
2768.865139  	102.135479
2770.302018  	102.120102
2771.738896  	102.11336
2773.175775  	102.099475
2774.612653  	102.074862
2776.049532  	102.058309
2777.486411  	102.04095
2778.923289  	102.010493
2780.360168  	101.992574
2781.797047  	101.983645
2783.233925  	101.964255
2784.670804  	101.942113
2786.107683  	101.913978
2787.544561  	101.890691
2788.98144  	101.884464
2790.418318  	101.872541
2791.855197  	101.855088
2793.292076  	101.842143
2794.728954  	101.824032
2796.165833  	101.797433
2797.602712  	101.763737
2799.03959  	101.743205
2800.476469  	101.736185
2801.913348  	101.709581
2803.350226  	101.678936
2804.787105  	101.660484
2806.223984  	101.635462
2807.660862  	101.619506
2809.097741  	101.616518
2810.534619  	101.600291
2811.971498  	101.564459
2813.408377  	101.517321
2814.845255  	101.48902
2816.282134  	101.484532
2817.719013  	101.464355
2819.155891  	101.426737
2820.59277  	101.391438
2822.029649  	101.361986
2823.466527  	101.337128
2824.903406  	101.303195
2826.340284  	101.268162
2827.777163  	101.245833
2829.214042  	101.222143
2830.65092  	101.197594
2832.087799  	101.167803
2833.524678  	101.123199
2834.961556  	101.084999
2836.398435  	101.058624
2837.835314  	101.035085
2839.272192  	101.004528
2840.709071  	100.95214
2842.14595  	100.90406
2843.582828  	100.871592
2845.019707  	100.827488
2846.456585  	100.790078
2847.893464  	100.764511
2849.330343  	100.716652
2850.767221  	100.664784
2852.2041  	100.63769
2853.640979  	100.617814
2855.077857  	100.57826
2856.514736  	100.512556
2857.951615  	100.441548
2859.388493  	100.388938
2860.825372  	100.357554
2862.26225  	100.320626
2863.699129  	100.253961
2865.136008  	100.186147
2866.572886  	100.131736
2868.009765  	100.070926
2869.446644  	100.022528
2870.883522  	99.980089
2872.320401  	99.912794
2873.75728  	99.848936
2875.194158  	99.792388
2876.631037  	99.718214
2878.067916  	99.643754
2879.504794  	99.572023
2880.941673  	99.492243
2882.378551  	99.406323
2883.81543  	99.323184
2885.252309  	99.266836
2886.689187  	99.217984
2888.126066  	99.150045
2889.562945  	99.091219
2890.999823  	99.036787
2892.436702  	98.977399
2893.873581  	98.945011
2895.310459  	98.924493
2896.747338  	98.880733
2898.184216  	98.812736
2899.621095  	98.739892
2901.057974  	98.680667
2902.494852  	98.619285
2903.931731  	98.558237
2905.36861  	98.512118
2906.805488  	98.448864
2908.242367  	98.377728
2909.679246  	98.327194
2911.116124  	98.274661
2912.553003  	98.220009
2913.989882  	98.160638
2915.42676  	98.090971
2916.863639  	98.036905
2918.300517  	97.974261
2919.737396  	97.888603
2921.174275  	97.81699
2922.611153  	97.753719
2924.048032  	97.684112
2925.484911  	97.598903
2926.921789  	97.491443
2928.358668  	97.392875
2929.795547  	97.308588
2931.232425  	97.228152
2932.669304  	97.148918
2934.106182  	97.057092
2935.543061  	96.9718
2936.97994  	96.885525
2938.416818  	96.777032
2939.853697  	96.671618
2941.290576  	96.549937
2942.727454  	96.424683
2944.164333  	96.330185
2945.601212  	96.196456
2947.03809  	96.051025
2948.474969  	95.964645
2949.911847  	95.848675
2951.348726  	95.686062
2952.785605  	95.5465
2954.222483  	95.424305
2955.659362  	95.29493
2957.096241  	95.131759
2958.533119  	94.975422
2959.969998  	94.8585
2961.406877  	94.70299
2962.843755  	94.535504
2964.280634  	94.402637
2965.717513  	94.24762
2967.154391  	94.09385
2968.59127  	93.912257
2970.028148  	93.64877
2971.465027  	93.441848
2972.901906  	93.354471
2974.338784  	93.280939
2975.775663  	93.151099
2977.212542  	92.955601
2978.64942  	92.726059
2980.086299  	92.4656
2981.523178  	92.230122
2982.960056  	92.200433
2984.396935  	92.3352
2985.833813  	92.365259
2987.270692  	92.244559
2988.707571  	92.129976
2990.144449  	92.039159
2991.581328  	91.898985
2993.018207  	91.7512
2994.455085  	91.638246
2995.891964  	91.518246
2997.328843  	91.404766
2998.765721  	91.307087
3000.2026  	91.183411
3001.639479  	91.05609
3003.076357  	90.949012
3004.513236  	90.849235
3005.950114  	90.747995
3007.386993  	90.631038
3008.823872  	90.505811
3010.26075  	90.365728
3011.697629  	90.211873
3013.134508  	90.070637
3014.571386  	89.911578
3016.008265  	89.744513
3017.445144  	89.597911
3018.882022  	89.43072
3020.318901  	89.255376
3021.755779  	89.0546
3023.192658  	88.817384
3024.629537  	88.644695
3026.066415  	88.484766
3027.503294  	88.263718
3028.940173  	88.059078
3030.377051  	87.848437
3031.81393  	87.626762
3033.250809  	87.42743
3034.687687  	87.1986
3036.124566  	86.987413
3037.561445  	86.793106
3038.998323  	86.560209
3040.435202  	86.351718
3041.87208  	86.135184
3043.308959  	85.893463
3044.745838  	85.683661
3046.182716  	85.445225
3047.619595  	85.201762
3049.056474  	84.983628
3050.493352  	84.728517
3051.930231  	84.489202
3053.36711  	84.264106
3054.803988  	84.009362
3056.240867  	83.762916
3057.677745  	83.505699
3059.114624  	83.246352
3060.551503  	82.985063
3061.988381  	82.701752
3063.42526  	82.454751
3064.862139  	82.198855
3066.299017  	81.915653
3067.735896  	81.668106
3069.172775  	81.400331
3070.609653  	81.128572
3072.046532  	80.864047
3073.483411  	80.561539
3074.920289  	80.289499
3076.357168  	80.004578
3077.794046  	79.690306
3079.230925  	79.434583
3080.667804  	79.153573
3082.104682  	78.851922
3083.541561  	78.568192
3084.97844  	78.24681
3086.415318  	77.967543
3087.852197  	77.683856
3089.289076  	77.34217
3090.725954  	77.05205
3092.162833  	76.746854
3093.599711  	76.425468
3095.03659  	76.141157
3096.473469  	75.816848
3097.910347  	75.508045
3099.347226  	75.185547
3100.784105  	74.837869
3102.220983  	74.577468
3103.657862  	74.26192
3105.094741  	73.912433
3106.531619  	73.640792
3107.968498  	73.290862
3109.405377  	72.945651
3110.842255  	72.66252
3112.279134  	72.311283
3113.716012  	71.972762
3115.152891  	71.633461
3116.58977  	71.295943
3118.026648  	71.008728
3119.463527  	70.643416
3120.900406  	70.293882
3122.337284  	69.995172
3123.774163  	69.644805
3125.211042  	69.350269
3126.64792  	69.030361
3128.084799  	68.664391
3129.521677  	68.36784
3130.958556  	68.011296
3132.395435  	67.668607
3133.832313  	67.375752
3135.269192  	67.001891
3136.706071  	66.691564
3138.142949  	66.389668
3139.579828  	66.027304
3141.016707  	65.717948
3142.453585  	65.353155
3143.890464  	65.030153
3145.327343  	64.781124
3146.764221  	64.418843
3148.2011  	64.103046
3149.637978  	63.803175
3151.074857  	63.433651
3152.511736  	63.148201
3153.948614  	62.813927
3155.385493  	62.485896
3156.822372  	62.249749
3158.25925  	61.913848
3159.696129  	61.608537
3161.133008  	61.310253
3162.569886  	60.943006
3164.006765  	60.709137
3165.443643  	60.431132
3166.880522  	60.086708
3168.317401  	59.839862
3169.754279  	59.534603
3171.191158  	59.253689
3172.628037  	58.991267
3174.064915  	58.661337
3175.501794  	58.42887
3176.938673  	58.15327
3178.375551  	57.858511
3179.81243  	57.658245
3181.249309  	57.344386
3182.686187  	57.085494
3184.123066  	56.894607
3185.559944  	56.601848
3186.996823  	56.406641
3188.433702  	56.169545
3189.87058  	55.868417
3191.307459  	55.698328
3192.744338  	55.469653
3194.181216  	55.276155
3195.618095  	55.115972
3197.054974  	54.828754
3198.491852  	54.661015
3199.928731  	54.472398
3201.365609  	54.193465
3202.802488  	54.055029
3204.239367  	53.864411
3205.676245  	53.688799
3207.113124  	53.556616
3208.550003  	53.299624
3209.986881  	53.174198
3211.42376  	53.046443
3212.860639  	52.821292
3214.297517  	52.75506
3215.734396  	52.604423
3217.171274  	52.418277
3218.608153  	52.339646
3220.045032  	52.18032
3221.48191  	52.11884
3222.918789  	52.024381
3224.355668  	51.79707
3225.792546  	51.739774
3227.229425  	51.638706
3228.666304  	51.502854
3230.103182  	51.483155
3231.540061  	51.357293
3232.97694  	51.289738
3234.413818  	51.236705
3235.850697  	51.097066
3237.287575  	51.099014
3238.724454  	51.016
3240.161333  	50.914556
3241.598211  	50.945568
3243.03509  	50.81318
3244.471969  	50.755703
3245.908847  	50.788655
3247.345726  	50.66862
3248.782605  	50.649529
3250.219483  	50.608906
3251.656362  	50.537408
3253.09324  	50.58376
3254.530119  	50.492722
3255.966998  	50.45381
3257.403876  	50.492131
3258.840755  	50.41177
3260.277634  	50.459117
3261.714512  	50.439934
3263.151391  	50.333633
3264.58827  	50.400835
3266.025148  	50.363012
3267.462027  	50.32562
3268.898906  	50.357056
3270.335784  	50.250277
3271.772663  	50.26488
3273.209541  	50.281664
3274.64642  	50.21325
3276.083299  	50.277984
3277.520177  	50.251536
3278.957056  	50.259178
3280.393935  	50.335388
3281.830813  	50.230044
3283.267692  	50.251673
3284.704571  	50.306818
3286.141449  	50.233323
3287.578328  	50.277627
3289.015206  	50.23416
3290.452085  	50.186938
3291.888964  	50.270916
3293.325842  	50.233577
3294.762721  	50.253702
3296.1996  	50.262111
3297.636478  	50.177944
3299.073357  	50.257424
3300.510236  	50.255893
3301.947114  	50.225005
3303.383993  	50.304704
3304.820872  	50.232883
3306.25775  	50.222071
3307.694629  	50.247094
3309.131507  	50.169134
3310.568386  	50.236007
3312.005265  	50.23292
3313.442143  	50.20552
3314.879022  	50.306131
3316.315901  	50.244809
3317.752779  	50.231699
3319.189658  	50.269915
3320.626537  	50.196182
3322.063415  	50.283595
3323.500294  	50.300333
3324.937172  	50.222826
3326.374051  	50.290469
3327.81093  	50.244226
3329.247808  	50.240386
3330.684687  	50.314905
3332.121566  	50.260849
3333.558444  	50.317183
3334.995323  	50.334746
3336.432202  	50.293681
3337.86908  	50.389533
3339.305959  	50.357271
3340.742838  	50.365556
3342.179716  	50.449432
3343.616595  	50.391577
3345.053473  	50.472828
3346.490352  	50.528925
3347.927231  	50.490262
3349.364109  	50.610129
3350.800988  	50.612696
3352.237867  	50.620537
3353.674745  	50.728574
3355.111624  	50.69067
3356.548503  	50.775625
3357.985381  	50.870796
3359.42226  	50.853313
3360.859138  	50.98491
3362.296017  	51.02955
3363.732896  	51.07032
3365.169774  	51.21735
3366.606653  	51.218677
3368.043532  	51.321486
3369.48041  	51.441964
3370.917289  	51.445658
3372.354168  	51.603046
3373.791046  	51.688266
3375.227925  	51.737444
3376.664804  	51.882411
3378.101682  	51.900945
3379.538561  	52.031459
3380.975439  	52.208891
3382.412318  	52.271504
3383.849197  	52.464689
3385.286075  	52.572693
3386.722954  	52.649385
3388.159833  	52.85777
3389.596711  	52.918103
3391.03359  	53.031261
3392.470469  	53.215871
3393.907347  	53.311504
3395.344226  	53.523058
3396.781104  	53.66544
3398.217983  	53.783244
3399.654862  	53.995308
3401.09174  	54.064109
3402.528619  	54.261374
3403.965498  	54.528336
3405.402376  	54.612338
3406.839255  	54.822594
3408.276134  	55.025915
3409.713012  	55.187747
3411.149891  	55.45809
3412.58677  	55.585835
3414.023648  	55.764703
3415.460527  	56.020553
3416.897405  	56.164573
3418.334284  	56.429441
3419.771163  	56.631776
3421.208041  	56.784288
3422.64492  	57.097913
3424.081799  	57.259246
3425.518677  	57.445596
3426.955556  	57.713757
3428.392435  	57.833527
3429.829313  	58.086477
3431.266192  	58.335971
3432.70307  	58.505567
3434.139949  	58.81391
3435.576828  	58.983485
3437.013706  	59.175323
3438.450585  	59.508341
3439.887464  	59.670067
3441.324342  	59.896218
3442.761221  	60.179487
3444.1981  	60.351832
3445.634978  	60.579685
3447.071857  	60.796321
3448.508736  	61.11859
3449.945614  	61.434348
3451.382493  	61.538253
3452.819371  	61.796034
3454.25625  	62.094945
3455.693129  	62.282131
3457.130007  	62.602354
3458.566886  	62.812103
3460.003765  	62.982048
3461.440643  	63.281959
3462.877522  	63.466891
3464.314401  	63.700042
3465.751279  	63.944154
3467.188158  	64.10981
3468.625036  	64.411307
3470.061915  	64.63587
3471.498794  	64.854883
3472.935672  	65.183887
3474.372551  	65.362433
3475.80943  	65.624045
3477.246308  	65.939217
3478.683187  	66.067186
3480.120066  	66.258442
3481.556944  	66.499019
3482.993823  	66.796894
3484.430701  	67.119807
3485.86758  	67.236311
3487.304459  	67.456866
3488.741337  	67.802537
3490.178216  	68.032478
3491.615095  	68.328399
3493.051973  	68.549141
3494.488852  	68.720837
3495.925731  	69.043208
3497.362609  	69.291901
3498.799488  	69.533194
3500.236367  	69.756733
3501.673245  	69.846656
3503.110124  	70.078952
3504.547002  	70.390512
3505.983881  	70.673735
3507.42076  	70.949689
3508.857638  	71.101506
3510.294517  	71.391127
3511.731396  	71.76163
3513.168274  	71.966702
3514.605153  	72.243828
3516.042032  	72.485787
3517.47891  	72.686604
3518.915789  	73.03114
3520.352667  	73.246959
3521.789546  	73.372181
3523.226425  	73.543631
3524.663303  	73.7287
3526.100182  	74.053442
3527.537061  	74.320168
3528.973939  	74.555469
3530.410818  	74.913031
3531.847697  	75.146474
3533.284575  	75.393657
3534.721454  	75.6607
3536.158333  	75.817765
3537.595211  	76.180668
3539.03209  	76.567655
3540.468968  	76.795028
3541.905847  	77.02933
3543.342726  	77.091531
3544.779604  	77.122774
3546.216483  	77.373493
3547.653362  	77.713188
3549.09024  	78.110722
3550.527119  	78.311495
3551.963998  	78.41874
3553.400876  	78.80227
3554.837755  	79.115418
3556.274633  	79.321312
3557.711512  	79.602894
3559.148391  	79.810456
3560.585269  	80.064159
3562.022148  	80.334096
3563.459027  	80.515244
3564.895905  	80.681246
3566.332784  	80.814596
3567.769663  	81.102454
3569.206541  	81.530134
3570.64342  	81.707256
3572.080299  	81.869777
3573.517177  	82.104726
3574.954056  	82.319826
3576.390934  	82.621677
3577.827813  	82.847129
3579.264692  	83.040098
3580.70157  	83.365394
3582.138449  	83.607917
3583.575328  	83.824395
3585.012206  	83.961234
3586.449085  	83.957662
3587.885964  	84.276477
3589.322842  	84.749071
3590.759721  	84.91463
3592.196599  	85.001929
3593.633478  	85.03258
3595.070357  	85.260765
3596.507235  	85.668369
3597.944114  	85.855524
3599.380993  	86.052458
3600.817871  	86.396417
3602.25475  	86.730007
3603.691629  	86.969437
3605.128507  	87.021877
3606.565386  	87.022998
3608.002265  	87.178793
3609.439143  	87.503521
3610.876022  	87.771188
3612.3129  	87.812257
3613.749779  	87.973394
3615.186658  	88.378471
3616.623536  	88.546423
3618.060415  	88.695696
3619.497294  	89.098975
3620.934172  	89.540561
3622.371051  	89.870122
3623.80793  	90.045064
3625.244808  	90.1148
3626.681687  	90.077602
3628.118565  	90.024933
3629.555444  	90.671794
3630.992323  	91.263995
3632.429201  	91.053421
3633.86608  	91.130098
3635.302959  	91.474981
3636.739837  	91.683158
3638.176716  	92.013991
3639.613595  	92.346978
3641.050473  	92.590159
3642.487352  	92.974046
3643.924231  	93.283397
3645.361109  	93.382635
3646.797988  	93.427414
3648.234866  	93.611191
3649.671745  	94.045055
3651.108624  	94.535469
3652.545502  	94.917213
3653.982381  	94.878663
3655.41926  	94.769145
3656.856138  	95.204139
3658.293017  	95.77557
3659.729896  	95.999358
3661.166774  	96.344654
3662.603653  	96.730549
3664.040531  	97.072102
3665.47741  	97.262499
3666.914289  	97.359638
3668.351167  	97.436624
3669.788046  	97.591218
3671.224925  	97.981688
3672.661803  	98.17588
3674.098682  	98.011643
3675.535561  	97.97475
3676.972439  	98.610727
3678.409318  	98.790764
3679.846197  	98.967413
3681.283075  	99.406181
3682.719954  	99.568931
3684.156832  	99.82494
3685.593711  	100.053849
3687.03059  	100.046675
3688.467468  	100.252625
3689.904347  	100.637148
3691.341226  	100.773216
3692.778104  	100.848846
3694.214983  	100.825323
3695.651862  	100.819206
3697.08874  	100.920177
3698.525619  	101.058876
3699.962497  	101.121618
3701.399376  	101.146631
3702.836255  	101.341425
3704.273133  	101.518625
3705.710012  	101.574474
3707.146891  	101.684436
3708.583769  	101.702024
3710.020648  	101.659417
3711.457527  	101.741944
3712.894405  	101.875277
3714.331284  	101.992727
3715.768163  	102.026069
3717.205041  	101.978663
3718.64192  	102.031389
3720.078798  	102.072866
3721.515677  	102.030758
3722.952556  	102.131088
3724.389434  	102.214258
3725.826313  	102.145354
3727.263192  	102.190601
3728.70007  	102.247268
3730.136949  	102.17935
3731.573828  	102.265099
3733.010706  	102.445965
3734.447585  	102.15122
3735.884463  	102.041416
3737.321342  	102.310869
3738.758221  	102.423708
3740.195099  	102.443815
3741.631978  	102.549884
3743.068857  	102.538046
3744.505735  	102.589316
3745.942614  	103.055352
3747.379493  	102.886935
3748.816371  	102.776935
3750.25325  	102.848308
3751.690129  	103.012741
3753.127007  	103.218594
3754.563886  	103.239726
3756.000764  	103.12394
3757.437643  	103.12107
3758.874522  	103.173968
3760.3114  	103.25696
3761.748279  	103.392598
3763.185158  	103.367419
3764.622036  	103.316881
3766.058915  	103.47722
3767.495794  	103.582724
3768.932672  	103.552625
3770.369551  	103.536372
3771.806429  	103.582857
3773.243308  	103.648661
3774.680187  	103.675455
3776.117065  	103.603952
3777.553944  	103.41772
3778.990823  	103.276486
3780.427701  	103.429071
3781.86458  	103.532838
3783.301459  	103.421851
3784.738337  	103.371088
3786.175216  	103.40664
3787.612094  	103.514596
3789.048973  	103.655322
3790.485852  	103.648162
3791.92273  	103.639904
3793.359609  	103.680232
3794.796488  	103.607439
3796.233366  	103.536205
3797.670245  	103.579663
3799.107124  	103.477354
3800.544002  	103.266644
3801.980881  	103.381387
3803.41776  	103.779363
3804.854638  	103.629766
3806.291517  	103.414102
3807.728395  	103.563254
3809.165274  	103.77946
3810.602153  	103.773508
3812.039031  	103.739634
3813.47591  	103.612257
3814.912789  	103.559217
3816.349667  	103.79372
3817.786546  	103.888923
3819.223425  	103.605719
3820.660303  	103.418751
3822.097182  	103.7357
3823.53406  	103.895144
3824.970939  	103.702103
3826.407818  	103.683677
3827.844696  	103.75784
3829.281575  	103.630227
3830.718454  	103.556567
3832.155332  	103.64291
3833.592211  	103.652258
3835.02909  	103.616318
3836.465968  	103.719545
3837.902847  	103.834754
3839.339726  	103.779572
3840.776604  	103.762305
3842.213483  	103.758918
3843.650361  	103.657077
3845.08724  	103.699783
3846.524119  	103.833372
3847.960997  	103.747073
3849.397876  	103.562279
3850.834755  	103.471467
3852.271633  	103.459496
3853.708512  	103.754887
3855.145391  	104.094443
3856.582269  	103.923788
3858.019148  	103.866437
3859.456026  	103.806395
3860.892905  	103.662932
3862.329784  	103.630951
3863.766662  	103.630258
3865.203541  	103.65518
3866.64042  	103.781928
3868.077298  	103.678247
3869.514177  	103.534409
3870.951056  	103.77309
3872.387934  	103.875456
3873.824813  	103.768928
3875.261692  	103.911972
3876.69857  	104.026087
3878.135449  	103.847978
3879.572327  	103.589518
3881.009206  	103.505838
3882.446085  	103.620219
3883.882963  	103.575378
3885.319842  	103.488167
3886.756721  	103.732088
3888.193599  	103.90976
3889.630478  	103.77171
3891.067357  	103.672074
3892.504235  	103.79097
3893.941114  	103.903302
3895.377992  	103.93669
3896.814871  	103.868659
3898.25175  	103.703913
3899.688628  	103.661067
3901.125507  	103.733535
3902.562386  	103.633738
3903.999264  	103.560556
3905.436143  	103.755344
3906.873022  	103.87202
3908.3099  	103.821684
3909.746779  	103.802945
3911.183658  	103.832434
3912.620536  	103.863537
3914.057415  	103.886909
3915.494293  	103.853802
3916.931172  	103.82162
3918.368051  	103.83597
3919.804929  	103.85374
3921.241808  	103.883365
3922.678687  	103.888023
3924.115565  	103.805206
3925.552444  	103.787261
3926.989323  	103.864647
3928.426201  	103.818409
3929.86308  	103.732112
3931.299958  	103.702133
3932.736837  	103.7028
3934.173716  	103.790655
3935.610594  	103.891191
3937.047473  	103.920429
3938.484352  	103.938671
3939.92123  	103.934333
3941.358109  	103.859768
3942.794988  	103.821449
3944.231866  	103.854221
3945.668745  	103.860451
3947.105624  	103.801764
3948.542502  	103.761765
3949.979381  	103.813045
3951.416259  	103.84291
3952.853138  	103.829713
3954.290017  	103.838275
3955.726895  	103.84827
3957.163774  	103.849912
3958.600653  	103.838481
3960.037531  	103.831587
3961.47441  	103.863991
3962.911289  	103.887187
3964.348167  	103.891859
3965.785046  	103.922422
3967.221924  	103.935006
3968.658803  	103.920876
3970.095682  	103.898669
3971.53256  	103.861129
3972.969439  	103.84231
3974.406318  	103.838359
3975.843196  	103.842838
3977.280075  	103.884813
3978.716954  	103.920265
3980.153832  	103.91133
3981.590711  	103.893043
3983.02759  	103.904281
3984.464468  	103.932892
3985.901347  	103.940557
3987.338225  	103.94196
3988.775104  	103.928132
3990.211983  	103.880138
3991.648861  	103.883159
3993.08574  	103.935317
3994.522619  	103.943812
3995.959497  	103.937308
3997.396376  	103.948052
3998.833255  	103.957169
4000.270133  	103.962628
