x               y
399.452262  	81.571090 
400.889141  	81.783711 
402.326019  	82.658168 
403.762898  	82.095300 
405.199776  	83.401059 
406.636655  	82.936023 
408.073534  	81.069739 
409.510412  	81.571358 
410.947291  	81.415900 
412.384170  	81.087478 
413.821048  	81.846261 
415.257927  	82.150188 
416.694806  	82.747016 
418.131684  	82.183780 
419.568563  	80.727017 
421.005441  	82.386125 
422.442320  	82.095651 
423.879199  	81.225557 
425.316077  	82.174747 
426.752956  	82.907387 
428.189835  	82.987927 
429.626713  	82.497774 
431.063592  	82.284319 
432.500471  	82.938827 
433.937349  	82.806541 
435.374228  	82.784289 
436.811106  	83.192034 
438.247985  	83.043789 
439.684864  	83.704983 
441.121742  	83.504298 
442.558621  	82.102800 
443.995500  	82.679167 
445.432378  	82.755405 
446.869257  	81.693484 
448.306136  	82.118559 
449.743014  	82.442701 
451.179893  	81.817741 
452.616772  	81.021136 
454.053650  	80.579741 
455.490529  	80.924953 
456.927407  	80.682858 
458.364286  	79.721854 
459.801165  	79.594856 
461.238043  	78.884443 
462.674922  	78.138409 
464.111801  	78.440547 
465.548679  	78.331078 
466.985558  	77.940674 
468.422437  	78.352593 
469.859315  	78.847628 
471.296194  	78.839609 
472.733072  	79.174354 
474.169951  	80.165611 
475.606830  	80.542283 
477.043708  	80.568287 
478.480587  	80.974653 
479.917466  	81.219390 
481.354344  	81.459075 
482.791223  	81.789655 
484.228102  	81.844376 
485.664980  	82.177324 
487.101859  	82.711870 
488.538738  	83.244566 
489.975616  	83.525487 
491.412495  	83.190034 
492.849373  	83.553653 
494.286252  	84.143538 
495.723131  	83.633763 
497.160009  	83.540938 
498.596888  	83.799100 
500.033767  	83.323129 
501.470645  	83.179721 
502.907524  	83.280827 
504.344403  	83.076999 
505.781281  	82.963216 
507.218160  	82.621323 
508.655038  	82.532626 
510.091917  	82.608371 
511.528796  	82.202757 
512.965674  	82.088229 
514.402553  	82.004581 
515.839432  	81.401600 
517.276310  	81.022420 
518.713189  	80.802068 
520.150068  	80.615245 
521.586946  	80.662568 
523.023825  	80.550303 
524.460704  	80.304375 
525.897582  	79.903914 
527.334461  	79.649066 
528.771339  	79.879641 
530.208218  	79.859463 
531.645097  	79.629815 
533.081975  	79.662670 
534.518854  	79.583119 
535.955733  	79.579451 
537.392611  	79.773537 
538.829490  	79.821683 
540.266369  	79.956841 
541.703247  	80.219162 
543.140126  	80.508733 
544.577004  	80.701193 
546.013883  	80.596621 
547.450762  	80.603577 
548.887640  	80.736116 
550.324519  	80.722109 
551.761398  	80.833357 
553.198276  	80.953569 
554.635155  	81.041444 
556.072034  	81.277137 
557.508912  	81.429404 
558.945791  	81.580014 
560.382670  	81.772410 
561.819548  	81.879780 
563.256427  	82.109178 
564.693305  	82.269107 
566.130184  	82.157989 
567.567063  	81.978926 
569.003941  	81.799212 
570.440820  	81.697651 
571.877699  	81.646568 
573.314577  	81.639533 
574.751456  	81.760519 
576.188335  	81.858431 
577.625213  	82.043864 
579.062092  	82.333874 
580.498970  	82.463794 
581.935849  	82.656695 
583.372728  	82.860978 
584.809606  	82.836023 
586.246485  	82.901355 
587.683364  	82.963779 
589.120242  	82.858338 
590.557121  	82.858551 
591.994000  	82.947453 
593.430878  	83.124084 
594.867757  	83.324497 
596.304636  	83.390141 
597.741514  	83.525382 
599.178393  	83.691895 
600.615271  	83.804761 
602.052150  	83.978502 
603.489029  	84.031396 
604.925907  	84.090750 
606.362786  	84.208396 
607.799665  	84.339960 
609.236543  	84.562613 
610.673422  	84.825843 
612.110301  	84.975962 
613.547179  	85.123035 
614.984058  	85.234269 
616.420936  	85.328394 
617.857815  	85.410590 
619.294694  	85.470834 
620.731572  	85.547270 
622.168451  	85.625316 
623.605330  	85.671471 
625.042208  	85.705800 
626.479087  	85.703506 
627.915966  	85.702809 
629.352844  	85.706217 
630.789723  	85.653345 
632.226602  	85.612544 
633.663480  	85.525529 
635.100359  	85.338619 
636.537237  	85.188263 
637.974116  	85.056333 
639.410995  	84.948104 
640.847873  	84.891366 
642.284752  	84.783528 
643.721631  	84.584014 
645.158509  	84.384055 
646.595388  	84.119083 
648.032267  	83.899173 
649.469145  	83.681993 
650.906024  	83.482698 
652.342902  	83.367450 
653.779781  	83.255321 
655.216660  	83.301612 
656.653538  	83.575876 
658.090417  	83.908762 
659.527296  	84.346255 
660.964174  	84.746935 
662.401053  	85.012185 
663.837932  	85.328563 
665.274810  	85.732368 
666.711689  	86.236486 
668.148568  	86.184606 
669.585446  	86.058783 
671.022325  	86.332972 
672.459203  	86.861685 
673.896082  	87.083614 
675.332961  	87.258048 
676.769839  	87.364274 
678.206718  	87.444647 
679.643597  	87.543124 
681.080475  	87.614751 
682.517354  	87.665500 
683.954233  	87.706430 
685.391111  	87.705407 
686.827990  	87.705822 
688.264868  	87.521062 
689.701747  	87.334045 
691.138626  	87.299831 
692.575504  	87.194159 
694.012383  	87.092094 
695.449262  	87.069593 
696.886140  	86.978636 
698.323019  	87.019524 
699.759898  	87.147158 
701.196776  	87.224816 
702.633655  	87.398391 
704.070533  	87.641542 
705.507412  	87.924244 
706.944291  	88.248857 
708.381169  	88.519163 
709.818048  	88.791173 
711.254927  	89.001398 
712.691805  	89.173622 
714.128684  	89.367269 
715.565563  	89.554928 
717.002441  	89.735670 
718.439320  	89.764744 
719.876199  	89.684390 
721.313077  	89.671684 
722.749956  	89.660131 
724.186834  	89.604762 
725.623713  	89.525929 
727.060592  	89.304230 
728.497470  	89.130271 
729.934349  	89.192026 
731.371228  	89.121894 
732.808106  	88.945768 
734.244985  	88.783057 
735.681864  	88.544501 
737.118742  	88.427409 
738.555621  	88.382738 
739.992499  	88.262780 
741.429378  	88.098457 
742.866257  	87.826651 
744.303135  	87.515914 
745.740014  	87.226857 
747.176893  	86.970117 
748.613771  	86.872610 
750.050650  	86.896766 
751.487529  	87.004963 
752.924407  	87.189238 
754.361286  	87.379138 
755.798165  	87.649684 
757.235043  	87.928387 
758.671922  	88.117891 
760.108800  	88.324288 
761.545679  	88.466568 
762.982558  	88.530094 
764.419436  	88.526282 
765.856315  	88.258494 
767.293194  	87.852917 
768.730072  	87.397013 
770.166951  	86.808049 
771.603830  	86.351043 
773.040708  	86.148560 
774.477587  	86.177394 
775.914465  	86.454213 
777.351344  	86.824039 
778.788223  	87.300976 
780.225101  	87.855593 
781.661980  	88.288130 
783.098859  	88.709899 
784.535737  	89.126452 
785.972616  	89.419727 
787.409495  	89.697914 
788.846373  	89.878835 
790.283252  	89.953090 
791.720131  	90.063398 
793.157009  	90.114431 
794.593888  	90.133975 
796.030766  	90.146633 
797.467645  	90.060886 
798.904524  	89.979384 
800.341402  	89.900603 
801.778281  	89.758273 
803.215160  	89.542381 
804.652038  	89.183776 
806.088917  	88.711337 
807.525796  	88.054885 
808.962674  	87.193702 
810.399553  	86.290569 
811.836431  	85.364793 
813.273310  	84.677125 
814.710189  	84.522414 
816.147067  	84.793770 
817.583946  	85.418131 
819.020825  	86.259289 
820.457703  	87.015373 
821.894582  	87.529741 
823.331461  	87.632960 
824.768339  	87.259648 
826.205218  	86.569001 
827.642097  	85.743815 
829.078975  	85.156779 
830.515854  	84.994406 
831.952732  	85.155980 
833.389611  	85.624163 
834.826490  	86.263720 
836.263368  	86.945403 
837.700247  	87.677850 
839.137126  	88.319546 
840.574004  	88.853285 
842.010883  	89.352353 
843.447762  	89.702435 
844.884640  	89.969779 
846.321519  	90.190507 
847.758397  	90.227471 
849.195276  	90.182112 
850.632155  	90.145494 
852.069033  	90.093526 
853.505912  	90.032510 
854.942791  	89.940829 
856.379669  	89.866896 
857.816548  	89.802450 
859.253427  	89.730515 
860.690305  	89.721329 
862.127184  	89.669360 
863.564063  	89.536243 
865.000941  	89.442799 
866.437820  	89.363241 
867.874698  	89.299327 
869.311577  	89.264731 
870.748456  	89.215168 
872.185334  	89.173861 
873.622213  	89.072505 
875.059092  	88.877196 
876.495970  	88.656097 
877.932849  	88.390038 
879.369728  	88.144523 
880.806606  	87.983941 
882.243485  	87.845130 
883.680363  	87.729114 
885.117242  	87.642246 
886.554121  	87.555849 
887.990999  	87.440635 
889.427878  	87.278106 
890.864757  	87.108033 
892.301635  	86.905886 
893.738514  	86.673017 
895.175393  	86.479592 
896.612271  	86.248825 
898.049150  	85.906841 
899.486029  	85.441364 
900.922907  	84.879476 
902.359786  	84.388994 
903.796664  	83.980518 
905.233543  	83.585660 
906.670422  	83.308979 
908.107300  	83.145356 
909.544179  	83.001639 
910.981058  	82.871798 
912.417936  	82.774454 
913.854815  	82.732007 
915.291694  	82.694955 
916.728572  	82.611926 
918.165451  	82.477169 
919.602329  	82.213157 
921.039208  	81.819260 
922.476087  	81.420183 
923.912965  	81.105843 
925.349844  	80.866022 
926.786723  	80.583040 
928.223601  	80.246927 
929.660480  	79.919156 
931.097359  	79.542547 
932.534237  	79.120125 
933.971116  	78.696401 
935.407995  	78.310364 
936.844873  	78.028795 
938.281752  	77.821064 
939.718630  	77.751043 
941.155509  	77.880871 
942.592388  	78.065540 
944.029266  	78.283034 
945.466145  	78.561752 
946.903024  	78.809953 
948.339902  	79.011185 
949.776781  	79.176117 
951.213660  	79.316498 
952.650538  	79.464303 
954.087417  	79.607624 
955.524295  	79.772525 
956.961174  	79.939243 
958.398053  	80.079875 
959.834931  	80.252666 
961.271810  	80.395986 
962.708689  	80.486437 
964.145567  	80.605275 
965.582446  	80.674214 
967.019325  	80.691470 
968.456203  	80.718391 
969.893082  	80.659252 
971.329961  	80.577882 
972.766839  	80.590125 
974.203718  	80.613703 
975.640596  	80.603866 
977.077475  	80.567564 
978.514354  	80.494231 
979.951232  	80.358739 
981.388111  	80.128370 
982.824990  	79.871748 
984.261868  	79.631789 
985.698747  	79.400805 
987.135626  	79.203444 
988.572504  	78.997792 
990.009383  	78.801322 
991.446261  	78.631652 
992.883140  	78.400170 
994.320019  	78.098036 
995.756897  	77.672058 
997.193776  	77.084445 
998.630655  	76.438850 
1000.067533  	75.702810 
1001.504412  	74.885883 
1002.941291  	74.065719 
1004.378169  	73.172348 
1005.815048  	72.241799 
1007.251926  	71.247683 
1008.688805  	70.133863 
1010.125684  	69.144923 
1011.562562  	68.485582 
1012.999441  	68.202820 
1014.436320  	68.142069 
1015.873198  	68.115191 
1017.310077  	68.225464 
1018.746956  	68.422338 
1020.183834  	68.583570 
1021.620713  	68.781161 
1023.057592  	68.948134 
1024.494470  	69.115725 
1025.931349  	69.417669 
1027.368227  	69.826305 
1028.805106  	70.360193 
1030.241985  	70.915123 
1031.678863  	71.303870 
1033.115742  	71.466421 
1034.552621  	71.324534 
1035.989499  	70.996306 
1037.426378  	70.727096 
1038.863257  	70.579603 
1040.300135  	70.649122 
1041.737014  	70.902550 
1043.173892  	71.217201 
1044.610771  	71.631045 
1046.047650  	72.061994 
1047.484528  	72.449765 
1048.921407  	72.831139 
1050.358286  	73.124094 
1051.795164  	73.324490 
1053.232043  	73.453979 
1054.668922  	73.494711 
1056.105800  	73.508656 
1057.542679  	73.497855 
1058.979558  	73.536747 
1060.416436  	73.694869 
1061.853315  	73.846259 
1063.290193  	74.010749 
1064.727072  	74.199047 
1066.163951  	74.284165 
1067.600829  	74.302694 
1069.037708  	74.286128 
1070.474587  	74.260345 
1071.911465  	74.279271 
1073.348344  	74.275225 
1074.785223  	74.367749 
1076.222101  	74.712372 
1077.658980  	75.233906 
1079.095858  	75.877830 
1080.532737  	76.559590 
1081.969616  	77.197916 
1083.406494  	77.786973 
1084.843373  	78.291249 
1086.280252  	78.727996 
1087.717130  	79.138084 
1089.154009  	79.531791 
1090.590888  	79.923129 
1092.027766  	80.216023 
1093.464645  	80.327007 
1094.901524  	80.311963 
1096.338402  	80.167107 
1097.775281  	79.873690 
1099.212159  	79.498705 
1100.649038  	79.059767 
1102.085917  	78.567586 
1103.522795  	78.014447 
1104.959674  	77.400525 
1106.396553  	76.788734 
1107.833431  	76.144534 
1109.270310  	75.447125 
1110.707189  	74.679884 
1112.144067  	73.791046 
1113.580946  	72.901583 
1115.017824  	72.082663 
1116.454703  	71.439385 
1117.891582  	71.138394 
1119.328460  	70.956681 
1120.765339  	70.687003 
1122.202218  	70.285563 
1123.639096  	69.703983 
1125.075975  	69.084201 
1126.512854  	68.415834 
1127.949732  	67.635929 
1129.386611  	66.833913 
1130.823490  	65.918600 
1132.260368  	64.998437 
1133.697247  	64.165162 
1135.134125  	63.265137 
1136.571004  	62.520181 
1138.007883  	61.954935 
1139.444761  	61.439667 
1140.881640  	61.152642 
1142.318519  	60.931653 
1143.755397  	60.742759 
1145.192276  	60.661093 
1146.629155  	60.426475 
1148.066033  	60.142738 
1149.502912  	59.802618 
1150.939790  	59.274585 
1152.376669  	58.836948 
1153.813548  	58.376658 
1155.250426  	57.845393 
1156.687305  	57.452301 
1158.124184  	57.011074 
1159.561062  	56.666822 
1160.997941  	56.495370 
1162.434820  	56.282411 
1163.871698  	56.258497 
1165.308577  	56.375656 
1166.745456  	56.569645 
1168.182334  	57.022533 
1169.619213  	57.522523 
1171.056091  	58.133745 
1172.492970  	58.914378 
1173.929849  	59.645381 
1175.366727  	60.482298 
1176.803606  	61.361803 
1178.240485  	62.190192 
1179.677363  	63.128215 
1181.114242  	64.004875 
1182.551121  	64.867045 
1183.987999  	65.863934 
1185.424878  	66.828307 
1186.861756  	67.817387 
1188.298635  	68.809025 
1189.735514  	69.676825 
1191.172392  	70.519708 
1192.609271  	71.269903 
1194.046150  	71.885527 
1195.483028  	72.465311 
1196.919907  	72.984192 
1198.356786  	73.514729 
1199.793664  	74.086421 
1201.230543  	74.626019 
1202.667422  	75.192322 
1204.104300  	75.747178 
1205.541179  	76.207938 
1206.978057  	76.565393 
1208.414936  	76.728265 
1209.851815  	76.654155 
1211.288693  	76.344761 
1212.725572  	75.799452 
1214.162451  	75.123790 
1215.599329  	74.327909 
1217.036208  	73.448422 
1218.473087  	72.614167 
1219.909965  	71.800547 
1221.346844  	71.105172 
1222.783722  	70.536294 
1224.220601  	69.926898 
1225.657480  	69.329225 
1227.094358  	68.673752 
1228.531237  	67.949099 
1229.968116  	67.334308 
1231.404994  	66.771331 
1232.841873  	66.357045 
1234.278752  	66.152701 
1235.715630  	66.000663 
1237.152509  	65.982477 
1238.589388  	66.044066 
1240.026266  	66.156954 
1241.463145  	66.416309 
1242.900023  	66.645085 
1244.336902  	66.913737 
1245.773781  	67.305940 
1247.210659  	67.660530 
1248.647538  	68.103848 
1250.084417  	68.651261 
1251.521295  	69.252526 
1252.958174  	70.035421 
1254.395053  	70.907676 
1255.831931  	71.871972 
1257.268810  	72.948670 
1258.705688  	73.973523 
1260.142567  	74.993117 
1261.579446  	75.987512 
1263.016324  	76.821225 
1264.453203  	77.544065 
1265.890082  	78.143942 
1267.326960  	78.590029 
1268.763839  	78.945442 
1270.200718  	79.212562 
1271.637596  	79.439862 
1273.074475  	79.678894 
1274.511353  	79.900607 
1275.948232  	80.118225 
1277.385111  	80.291818 
1278.821989  	80.374130 
1280.258868  	80.402310 
1281.695747  	80.364947 
1283.132625  	80.255584 
1284.569504  	80.074348 
1286.006383  	79.773092 
1287.443261  	79.353141 
1288.880140  	78.804709 
1290.317019  	78.104564 
1291.753897  	77.264857 
1293.190776  	76.377685 
1294.627654  	75.684816 
1296.064533  	75.332509 
1297.501412  	75.420112 
1298.938290  	75.946408 
1300.375169  	76.653029 
1301.812048  	77.414417 
1303.248926  	78.185654 
1304.685805  	78.588488 
1306.122684  	79.231702 
1307.559562  	79.779614 
1308.996441  	80.337274 
1310.433319  	81.349647 
1311.870198  	81.637756 
1313.307077  	81.757386 
1314.743955  	81.826643 
1316.180834  	81.776090 
1317.617713  	81.593218 
1319.054591  	81.450226 
1320.491470  	81.545568 
1321.928349  	81.965632 
1323.365227  	82.644059 
1324.802106  	83.505150 
1326.238985  	84.469247 
1327.675863  	85.105471 
1329.112742  	85.932153 
1330.549620  	86.793182 
1331.986499  	87.426732 
1333.423378  	88.103019 
1334.860256  	88.220243 
1336.297135  	88.226997 
1337.734014  	88.077758 
1339.170892  	87.816300 
1340.607771  	87.785562 
1342.044650  	88.121128 
1343.481528  	88.427431 
1344.918407  	88.580717 
1346.355285  	88.760948 
1347.792164  	88.736729 
1349.229043  	88.671388 
1350.665921  	88.598170 
1352.102800  	88.553394 
1353.539679  	88.339399 
1354.976557  	88.142903 
1356.413436  	87.962877 
1357.850315  	87.807953 
1359.287193  	87.601509 
1360.724072  	87.254078 
1362.160951  	86.772623 
1363.597829  	86.363480 
1365.034708  	86.330494 
1366.471586  	86.444917 
1367.908465  	86.601487 
1369.345344  	86.760452 
1370.782222  	87.035031 
1372.219101  	87.304541 
1373.655980  	87.436290 
1375.092858  	87.506155 
1376.529737  	87.667469 
1377.966616  	87.901646 
1379.403494  	88.137142 
1380.840373  	88.289635 
1382.277251  	88.234687 
1383.714130  	87.993982 
1385.151009  	87.656986 
1386.587887  	87.243127 
1388.024766  	87.062283 
1389.461645  	87.313154 
1390.898523  	87.883078 
1392.335402  	88.407878 
1393.772281  	88.806378 
1395.209159  	89.034495 
1396.646038  	89.332173 
1398.082917  	89.582755 
1399.519795  	89.752664 
1400.956674  	89.974642 
1402.393552  	90.197447 
1403.830431  	90.197926 
1405.267310  	90.124281 
1406.704188  	90.063237 
1408.141067  	90.104390 
1409.577946  	90.172313 
1411.014824  	90.156202 
1412.451703  	90.173606 
1413.888582  	90.192117 
1415.325460  	90.196981 
1416.762339  	90.257116 
1418.199217  	90.264929 
1419.636096  	90.328657 
1421.072975  	90.517161 
1422.509853  	90.593530 
1423.946732  	90.671181 
1425.383611  	90.658220 
1426.820489  	90.686154 
1428.257368  	90.538935 
1429.694247  	90.094896 
1431.131125  	89.441520 
1432.568004  	88.861406 
1434.004883  	88.428815 
1435.441761  	88.111555 
1436.878640  	87.501538 
1438.315518  	86.921718 
1439.752397  	86.623452 
1441.189276  	86.405789 
1442.626154  	86.001477 
1444.063033  	85.488091 
1445.499912  	84.834794 
1446.936790  	84.274596 
1448.373669  	83.533051 
1449.810548  	83.045680 
1451.247426  	82.807100 
1452.684305  	82.630462 
1454.121183  	82.837891 
1455.558062  	83.208411 
1456.994941  	83.501793 
1458.431819  	83.495667 
1459.868698  	83.495231 
1461.305577  	84.013894 
1462.742455  	84.499526 
1464.179334  	84.828949 
1465.616213  	85.329104 
1467.053091  	85.777627 
1468.489970  	86.593001 
1469.926849  	87.598889 
1471.363727  	88.065173 
1472.800606  	88.334912 
1474.237484  	88.846454 
1475.674363  	89.164439 
1477.111242  	89.835810 
1478.548120  	90.506369 
1479.984999  	91.044431 
1481.421878  	91.694526 
1482.858756  	92.142533 
1484.295635  	92.465110 
1485.732514  	92.703425 
1487.169392  	92.688240 
1488.606271  	92.617392 
1490.043149  	92.355503 
1491.480028  	92.200583 
1492.916907  	92.290038 
1494.353785  	92.242878 
1495.790664  	92.005174 
1497.227543  	91.345949 
1498.664421  	90.346559 
1500.101300  	89.424712 
1501.538179  	88.325953 
1502.975057  	87.174444 
1504.411936  	86.608763 
1505.848815  	85.927643 
1507.285693  	81.911079 
1508.722572  	80.173723 
1510.159450  	79.911265 
1511.596329  	79.961074 
1513.033208  	80.861315 
1514.470086  	81.559407 
1515.906965  	82.099491 
1517.343844  	83.064374 
1518.780722  	83.551457 
1520.217601  	83.811012 
1521.654480  	83.723810 
1523.091358  	83.425716 
1524.528237  	83.523911 
1525.965115  	83.600077 
1527.401994  	83.613007 
1528.838873  	83.729507 
1530.275751  	84.036941 
1531.712630  	84.455847 
1533.149509  	84.554867 
1534.586387  	84.453650 
1536.023266  	84.839687 
1537.460145  	85.636816 
1538.897023  	87.006197 
1540.333902  	87.156721 
1541.770780  	86.826437 
1543.207659  	87.283223 
1544.644538  	87.368934 
1546.081416  	88.072341 
1547.518295  	88.940207 
1548.955174  	89.380037 
1550.392052  	89.889696 
1551.828931  	90.528817 
1553.265810  	91.079789 
1554.702688  	91.605686 
1556.139567  	92.115825 
1557.576446  	92.922846 
1559.013324  	93.253469 
1560.450203  	93.028743 
1561.887081  	93.611557 
1563.323960  	94.214165 
1564.760839  	94.627855 
1566.197717  	94.855373 
1567.634596  	95.288583 
1569.071475  	95.762088 
1570.508353  	95.652240 
1571.945232  	95.470489 
1573.382111  	95.675221 
1574.818989  	95.998736 
1576.255868  	95.874160 
1577.692746  	95.446114 
1579.129625  	95.461752 
1580.566504  	95.582713 
1582.003382  	95.570306 
1583.440261  	95.507771 
1584.877140  	95.618634 
1586.314018  	95.873812 
1587.750897  	96.108403 
1589.187776  	96.108856 
1590.624654  	96.033863 
1592.061533  	95.966076 
1593.498412  	95.882488 
1594.935290  	95.748522 
1596.372169  	95.543190 
1597.809047  	95.391198 
1599.245926  	95.322458 
1600.682805  	95.141257 
1602.119683  	94.826010 
1603.556562  	94.423264 
1604.993441  	94.010314 
1606.430319  	93.697460 
1607.867198  	93.410592 
1609.304077  	93.274720 
1610.740955  	93.164188 
1612.177834  	93.062797 
1613.614712  	93.393996 
1615.051591  	93.539167 
1616.488470  	93.728153 
1617.925348  	93.209583 
1619.362227  	92.889526 
1620.799106  	93.028014 
1622.235984  	93.124285 
1623.672863  	92.375455 
1625.109742  	91.856676 
1626.546620  	91.754541 
1627.983499  	91.368135 
1629.420378  	90.875723 
1630.857256  	90.441979 
1632.294135  	90.194656 
1633.731013  	90.286078 
1635.167892  	89.931543 
1636.604771  	88.555114 
1638.041649  	88.225365 
1639.478528  	88.544086 
1640.915407  	89.198201 
1642.352285  	89.749685 
1643.789164  	90.550078 
1645.226043  	91.658307 
1646.662921  	92.022117 
1648.099800  	91.525748 
1649.536678  	91.346018 
1650.973557  	91.770656 
1652.410436  	92.811176 
1653.847314  	91.196427 
1655.284193  	90.803038 
1656.721072  	91.181476 
1658.157950  	91.288539 
1659.594829  	91.392459 
1661.031708  	91.263185 
1662.468586  	91.068754 
1663.905465  	90.892985 
1665.342344  	90.592063 
1666.779222  	90.420829 
1668.216101  	90.535854 
1669.652979  	89.720438 
1671.089858  	89.156987 
1672.526737  	88.785256 
1673.963615  	88.363045 
1675.400494  	87.984118 
1676.837373  	87.241440 
1678.274251  	86.712508 
1679.711130  	85.978210 
1681.148009  	84.928164 
1682.584887  	84.609937 
1684.021766  	84.084171 
1685.458644  	81.458383 
1686.895523  	80.671049 
1688.332402  	79.560308 
1689.769280  	78.191683 
1691.206159  	77.092556 
1692.643038  	75.853237 
1694.079916  	75.009557 
1695.516795  	73.973025 
1696.953674  	70.902528 
1698.390552  	69.976523 
1699.827431  	69.125209 
1701.264310  	66.326305 
1702.701188  	65.290398 
1704.138067  	63.995031 
1705.574945  	62.685150 
1707.011824  	61.455044 
1708.448703  	59.843456 
1709.885581  	58.963470 
1711.322460  	58.068251 
1712.759339  	56.911937 
1714.196217  	56.639218 
1715.633096  	56.233819 
1717.069975  	55.773860 
1718.506853  	56.589362 
1719.943732  	56.588876 
1721.380610  	56.919296 
1722.817489  	57.867039 
1724.254368  	58.562218 
1725.691246  	59.612021 
1727.128125  	60.809511 
1728.565004  	61.763661 
1730.001882  	63.046901 
1731.438761  	64.501973 
1732.875640  	65.667171 
1734.312518  	67.970458 
1735.749397  	70.347518 
1737.186276  	71.884558 
1738.623154  	74.078440 
1740.060033  	76.990489 
1741.496911  	79.306478 
1742.933790  	81.601743 
1744.370669  	83.904813 
1745.807547  	85.991638 
1747.244426  	87.664064 
1748.681305  	88.877932 
1750.118183  	90.293444 
1751.555062  	91.026067 
1752.991941  	91.924151 
1754.428819  	93.332827 
1755.865698  	93.908908 
1757.302576  	94.278585 
1758.739455  	94.842336 
1760.176334  	95.248439 
1761.613212  	95.906504 
1763.050091  	96.083034 
1764.486970  	96.332315 
1765.923848  	97.130345 
1767.360727  	97.272171 
1768.797606  	97.339869 
1770.234484  	97.687365 
1771.671363  	97.827661 
1773.108242  	97.884826 
1774.545120  	97.810123 
1775.981999  	97.824639 
1777.418877  	98.139378 
1778.855756  	98.207624 
1780.292635  	98.216469 
1781.729513  	98.416971 
1783.166392  	98.472438 
1784.603271  	98.626341 
1786.040149  	98.693647 
1787.477028  	98.643680 
1788.913907  	98.877522 
1790.350785  	99.012252 
1791.787664  	98.973687 
1793.224542  	99.003823 
1794.661421  	98.847837 
1796.098300  	98.920662 
1797.535178  	99.098268 
1798.972057  	99.115592 
1800.408936  	99.205854 
1801.845814  	99.093189 
1803.282693  	99.100420 
1804.719572  	99.366994 
1806.156450  	99.338045 
1807.593329  	99.338119 
1809.030207  	99.493400 
1810.467086  	99.448692 
1811.903965  	99.481772 
1813.340843  	99.524367 
1814.777722  	99.621969 
1816.214601  	99.762978 
1817.651479  	99.650264 
1819.088358  	99.630567 
1820.525237  	99.703024 
1821.962115  	99.657121 
1823.398994  	99.794939 
1824.835873  	99.736704 
1826.272751  	99.572109 
1827.709630  	99.771066 
1829.146508  	99.805579 
1830.583387  	99.671371 
1832.020266  	99.616846 
1833.457144  	99.557028 
1834.894023  	99.799048 
1836.330902  	99.883150 
1837.767780  	99.758826 
1839.204659  	99.963721 
1840.641538  	100.035560 
1842.078416  	100.071946 
1843.515295  	100.215976 
1844.952173  	99.861283 
1846.389052  	99.768069 
1847.825931  	99.869783 
1849.262809  	99.862302 
1850.699688  	100.000995 
1852.136567  	99.997715 
1853.573445  	100.039054 
1855.010324  	100.246845 
1856.447203  	100.019732 
1857.884081  	99.974290 
1859.320960  	99.997859 
1860.757839  	99.843742 
1862.194717  	100.084580 
1863.631596  	100.113144 
1865.068474  	100.078743 
1866.505353  	100.340904 
1867.942232  	100.120221 
1869.379110  	99.858006 
1870.815989  	99.783602 
1872.252868  	99.714622 
1873.689746  	100.068096 
1875.126625  	100.074527 
1876.563504  	99.937718 
1878.000382  	100.209549 
1879.437261  	100.074553 
1880.874139  	100.076890 
1882.311018  	100.228240 
1883.747897  	99.983352 
1885.184775  	100.090585 
1886.621654  	100.162140 
1888.058533  	100.123882 
1889.495411  	100.185332 
1890.932290  	99.978446 
1892.369169  	100.020131 
1893.806047  	100.235999 
1895.242926  	100.078658 
1896.679805  	100.095327 
1898.116683  	100.167503 
1899.553562  	100.136378 
1900.990440  	100.372768 
1902.427319  	100.128898 
1903.864198  	100.061767 
1905.301076  	100.358964 
1906.737955  	100.186144 
1908.174834  	100.301312 
1909.611712  	100.291548 
1911.048591  	100.016434 
1912.485470  	100.314242 
1913.922348  	100.320989 
1915.359227  	100.391490 
1916.796105  	100.556398 
1918.232984  	100.280892 
1919.669863  	100.311975 
1921.106741  	100.449990 
1922.543620  	100.241964 
1923.980499  	100.298001 
1925.417377  	100.244793 
1926.854256  	100.326101 
1928.291135  	100.415735 
1929.728013  	100.464850 
1931.164892  	100.466443 
1932.601771  	100.525540 
1934.038649  	100.428633 
1935.475528  	100.521120 
1936.912406  	100.467304 
1938.349285  	100.381510 
1939.786164  	100.617409 
1941.223042  	100.554216 
1942.659921  	100.473610 
1944.096800  	100.464100 
1945.533678  	100.288639 
1946.970557  	100.620628 
1948.407436  	100.853976 
1949.844314  	100.704301 
1951.281193  	101.025229 
1952.718071  	100.767834 
1954.154950  	100.755765 
1955.591829  	100.957240 
1957.028707  	100.656548 
1958.465586  	101.094559 
1959.902465  	101.198206 
1961.339343  	100.847158 
1962.776222  	101.258843 
1964.213101  	100.955383 
1965.649979  	100.858675 
1967.086858  	101.264351 
1968.523737  	100.836227 
1969.960615  	101.025747 
1971.397494  	101.014959 
1972.834372  	100.728423 
1974.271251  	101.179743 
1975.708130  	101.067047 
1977.145008  	100.981521 
1978.581887  	101.101013 
1980.018766  	100.536246 
1981.455644  	100.718212 
1982.892523  	100.903644 
1984.329402  	100.631477 
1985.766280  	101.086770 
1987.203159  	100.808009 
1988.640037  	100.484637 
1990.076916  	100.811491 
1991.513795  	100.363300 
1992.950673  	100.667539 
1994.387552  	100.942701 
1995.824431  	100.621967 
1997.261309  	101.098218 
1998.698188  	100.878333 
2000.135067  	100.808870 
2001.571945  	101.576778 
2003.008824  	101.179892 
2004.445703  	101.162314 
2005.882581  	101.328949 
2007.319460  	100.788326 
2008.756338  	101.426443 
2010.193217  	101.472564 
2011.630096  	101.103206 
2013.066974  	101.436671 
2014.503853  	100.876198 
2015.940732  	101.059093 
2017.377610  	101.399590 
2018.814489  	100.686290 
2020.251368  	101.179438 
2021.688246  	101.227672 
2023.125125  	100.922494 
2024.562003  	101.569741 
2025.998882  	101.106942 
2027.435761  	101.021545 
2028.872639  	101.329527 
2030.309518  	100.826354 
2031.746397  	101.411401 
2033.183275  	101.416689 
2034.620154  	100.963258 
2036.057033  	101.544830 
2037.493911  	101.003710 
2038.930790  	100.701721 
2040.367669  	100.955158 
2041.804547  	100.490804 
2043.241426  	100.827576 
2044.678304  	100.938938 
2046.115183  	100.722505 
2047.552062  	101.189340 
2048.988940  	100.761919 
2050.425819  	100.576230 
2051.862698  	100.903612 
2053.299576  	100.582817 
2054.736455  	100.768413 
2056.173334  	100.850087 
2057.610212  	100.551590 
2059.047091  	100.822098 
2060.483969  	100.567857 
2061.920848  	100.363234 
2063.357727  	100.673962 
2064.794605  	100.460070 
2066.231484  	100.576535 
2067.668363  	100.728934 
2069.105241  	100.549490 
2070.542120  	100.866092 
2071.978999  	100.715114 
2073.415877  	100.416994 
2074.852756  	100.652813 
2076.289635  	100.546811 
2077.726513  	100.598006 
2079.163392  	100.703470 
2080.600270  	100.478707 
2082.037149  	100.612512 
2083.474028  	100.565062 
2084.910906  	100.468752 
2086.347785  	100.658739 
2087.784664  	100.444270 
2089.221542  	100.464766 
2090.658421  	100.675541 
2092.095300  	100.516391 
2093.532178  	100.686278 
2094.969057  	100.775033 
2096.405935  	100.660918 
2097.842814  	100.799404 
2099.279693  	100.638316 
2100.716571  	100.622903 
2102.153450  	100.777766 
2103.590329  	100.632458 
2105.027207  	100.737569 
2106.464086  	100.725662 
2107.900965  	100.600464 
2109.337843  	100.750598 
2110.774722  	100.601225 
2112.211600  	100.624628 
2113.648479  	100.798823 
2115.085358  	100.554140 
2116.522236  	100.638678 
2117.959115  	100.832847 
2119.395994  	100.821363 
2120.832872  	100.975905 
2122.269751  	100.848945 
2123.706630  	100.800916 
2125.143508  	100.976557 
2126.580387  	100.862717 
2128.017266  	100.992181 
2129.454144  	101.061005 
2130.891023  	100.934717 
2132.327901  	101.178212 
2133.764780  	101.067491 
2135.201659  	100.981999 
2136.638537  	101.154980 
2138.075416  	100.828774 
2139.512295  	101.023806 
2140.949173  	101.330551 
2142.386052  	101.213138 
2143.822931  	101.598993 
2145.259809  	101.426777 
2146.696688  	101.108085 
2148.133566  	101.377971 
2149.570445  	101.060224 
2151.007324  	101.221218 
2152.444202  	101.603070 
2153.881081  	101.316790 
2155.317960  	101.729496 
2156.754838  	101.766298 
2158.191717  	101.384921 
2159.628596  	101.273505 
2161.065474  	100.288224 
2162.502353  	100.473851 
2163.939232  	101.070097 
2165.376110  	100.684806 
2166.812989  	100.900894 
2168.249867  	100.883857 
2169.686746  	100.653503 
2171.123625  	100.868469 
2172.560503  	100.668160 
2173.997382  	101.002640 
2175.434261  	101.280453 
2176.871139  	100.883776 
2178.308018  	101.383867 
2179.744897  	101.361842 
2181.181775  	100.786703 
2182.618654  	100.988775 
2184.055532  	100.669535 
2185.492411  	100.600520 
2186.929290  	100.907658 
2188.366168  	100.569334 
2189.803047  	100.742006 
2191.239926  	100.832520 
2192.676804  	100.614606 
2194.113683  	100.928878 
2195.550562  	100.741094 
2196.987440  	100.583592 
2198.424319  	100.747780 
2199.861198  	100.513255 
2201.298076  	100.801777 
2202.734955  	100.991290 
2204.171833  	100.717919 
2205.608712  	100.929745 
2207.045591  	100.818946 
2208.482469  	100.679132 
2209.919348  	100.890228 
2211.356227  	100.731742 
2212.793105  	100.860522 
2214.229984  	100.913780 
2215.666863  	100.640149 
2217.103741  	100.864484 
2218.540620  	100.835636 
2219.977498  	100.692120 
2221.414377  	100.845127 
2222.851256  	100.726655 
2224.288134  	100.897161 
2225.725013  	100.987466 
2227.161892  	100.665497 
2228.598770  	100.802289 
2230.035649  	100.841794 
2231.472528  	100.708922 
2232.909406  	100.768670 
2234.346285  	100.619604 
2235.783164  	100.722670 
2237.220042  	100.843604 
2238.656921  	100.712810 
2240.093799  	100.861430 
2241.530678  	100.711649 
2242.967557  	100.518575 
2244.404435  	100.730962 
2245.841314  	100.609147 
2247.278193  	100.523026 
2248.715071  	100.586367 
2250.151950  	100.475750 
2251.588829  	100.549995 
2253.025707  	100.537264 
2254.462586  	100.506873 
2255.899464  	100.615503 
2257.336343  	100.541355 
2258.773222  	100.507234 
2260.210100  	100.572956 
2261.646979  	100.518699 
2263.083858  	100.575069 
2264.520736  	100.607429 
2265.957615  	100.557622 
2267.394494  	100.616221 
2268.831372  	100.523735 
2270.268251  	100.475971 
2271.705130  	100.529560 
2273.142008  	100.479628 
2274.578887  	100.495682 
2276.015765  	100.479888 
2277.452644  	100.386414 
2278.889523  	100.410659 
2280.326401  	100.389605 
2281.763280  	100.350095 
2283.200159  	100.344442 
2284.637037  	100.258347 
2286.073916  	100.245167 
2287.510795  	100.228868 
2288.947673  	100.133478 
2290.384552  	100.130036 
2291.821430  	100.076782 
2293.258309  	100.029271 
2294.695188  	100.055524 
2296.132066  	99.998650 
2297.568945  	99.937360 
2299.005824  	99.745745 
2300.442702  	99.680213 
2301.879581  	99.653937 
2303.316460  	99.553540 
2304.753338  	99.425914 
2306.190217  	99.428610 
2307.627096  	99.262251 
2309.063974  	99.139217 
2310.500853  	99.078920 
2311.937731  	98.921005 
2313.374610  	98.939850 
2314.811489  	98.961022 
2316.248367  	98.925313 
2317.685246  	98.921657 
2319.122125  	98.699467 
2320.559003  	98.528700 
2321.995882  	98.434525 
2323.432761  	98.182634 
2324.869639  	98.135717 
2326.306518  	98.222819 
2327.743396  	98.292439 
2329.180275  	98.404303 
2330.617154  	98.352104 
2332.054032  	98.353691 
2333.490911  	98.505621 
2334.927790  	98.545922 
2336.364668  	98.624615 
2337.801547  	98.680266 
2339.238426  	98.669999 
2340.675304  	98.657007 
2342.112183  	98.472834 
2343.549062  	98.359239 
2344.985940  	98.210886 
2346.422819  	97.933062 
2347.859697  	98.024973 
2349.296576  	98.269978 
2350.733455  	98.540941 
2352.170333  	98.892162 
2353.607212  	98.990547 
2355.044091  	99.002716 
2356.480969  	99.098842 
2357.917848  	98.909542 
2359.354727  	98.801808 
2360.791605  	98.863045 
2362.228484  	98.896665 
2363.665362  	99.068162 
2365.102241  	99.016645 
2366.539120  	98.904922 
2367.975998  	98.962522 
2369.412877  	98.834163 
2370.849756  	98.817820 
2372.286634  	98.898011 
2373.723513  	98.842022 
2375.160392  	98.913886 
2376.597270  	98.996767 
2378.034149  	99.075360 
2379.471027  	99.227995 
2380.907906  	99.317859 
2382.344785  	99.547664 
2383.781663  	99.851102 
2385.218542  	100.034517 
2386.655421  	100.240611 
2388.092299  	100.340395 
2389.529178  	100.368761 
2390.966057  	100.448085 
2392.402935  	100.431915 
2393.839814  	100.439666 
2395.276693  	100.476454 
2396.713571  	100.425603 
2398.150450  	100.466181 
2399.587328  	100.468763 
2401.024207  	100.386867 
2402.461086  	100.405226 
2403.897964  	100.381978 
2405.334843  	100.362238 
2406.771722  	100.380415 
2408.208600  	100.319893 
2409.645479  	100.340786 
2411.082358  	100.361127 
2412.519236  	100.312795 
2413.956115  	100.345241 
2415.392993  	100.357598 
2416.829872  	100.380509 
2418.266751  	100.413193 
2419.703629  	100.379731 
2421.140508  	100.425347 
2422.577387  	100.412464 
2424.014265  	100.345066 
2425.451144  	100.398825 
2426.888023  	100.364430 
2428.324901  	100.334100 
2429.761780  	100.399618 
2431.198659  	100.362284 
2432.635537  	100.352457 
2434.072416  	100.341271 
2435.509294  	100.290090 
2436.946173  	100.334672 
2438.383052  	100.298329 
2439.819930  	100.259236 
2441.256809  	100.307276 
2442.693688  	100.273113 
2444.130566  	100.292084 
2445.567445  	100.307542 
2447.004324  	100.265278 
2448.441202  	100.326550 
2449.878081  	100.320367 
2451.314959  	100.303181 
2452.751838  	100.321677 
2454.188717  	100.212965 
2455.625595  	100.235579 
2457.062474  	100.303901 
2458.499353  	100.226747 
2459.936231  	100.260649 
2461.373110  	100.282212 
2462.809989  	100.272337 
2464.246867  	100.356816 
2465.683746  	100.305446 
2467.120625  	100.262102 
2468.557503  	100.299809 
2469.994382  	100.257307 
2471.431260  	100.300511 
2472.868139  	100.343191 
2474.305018  	100.330794 
2475.741896  	100.372592 
2477.178775  	100.316900 
2478.615654  	100.284587 
2480.052532  	100.300903 
2481.489411  	100.225726 
2482.926290  	100.244827 
2484.363168  	100.273658 
2485.800047  	100.261829 
2487.236925  	100.314891 
2488.673804  	100.256572 
2490.110683  	100.234715 
2491.547561  	100.302995 
2492.984440  	100.250200 
2494.421319  	100.239094 
2495.858197  	100.219601 
2497.295076  	100.162702 
2498.731955  	100.244234 
2500.168833  	100.252774 
2501.605712  	100.224249 
2503.042591  	100.262362 
2504.479469  	100.200744 
2505.916348  	100.186187 
2507.353226  	100.199304 
2508.790105  	100.167830 
2510.226984  	100.233386 
2511.663862  	100.235410 
2513.100741  	100.206935 
2514.537620  	100.227888 
2515.974498  	100.141791 
2517.411377  	100.130451 
2518.848256  	100.197503 
2520.285134  	100.201997 
2521.722013  	100.244867 
2523.158891  	100.220275 
2524.595770  	100.176457 
2526.032649  	100.191279 
2527.469527  	100.135076 
2528.906406  	100.151202 
2530.343285  	100.175085 
2531.780163  	100.108959 
2533.217042  	100.135033 
2534.653921  	100.128745 
2536.090799  	100.121091 
2537.527678  	100.181243 
2538.964557  	100.114142 
2540.401435  	100.105989 
2541.838314  	100.142710 
2543.275192  	100.059615 
2544.712071  	100.082724 
2546.148950  	100.102730 
2547.585828  	100.057902 
2549.022707  	100.105794 
2550.459586  	100.088204 
2551.896464  	100.072981 
2553.333343  	100.105499 
2554.770222  	100.060138 
2556.207100  	100.057907 
2557.643979  	100.031135 
2559.080857  	100.002868 
2560.517736  	100.072486 
2561.954615  	100.042804 
2563.391493  	100.036303 
2564.828372  	100.085883 
2566.265251  	100.011572 
2567.702129  	100.007922 
2569.139008  	100.020473 
2570.575887  	99.975769 
2572.012765  	100.038661 
2573.449644  	100.032096 
2574.886523  	99.974215 
2576.323401  	99.998401 
2577.760280  	99.984752 
2579.197158  	99.988480 
2580.634037  	99.968364 
2582.070916  	99.922473 
2583.507794  	99.973551 
2584.944673  	99.959413 
2586.381552  	99.932809 
2587.818430  	99.964742 
2589.255309  	99.911760 
2590.692188  	99.932627 
2592.129066  	99.989723 
2593.565945  	99.943584 
2595.002823  	99.957300 
2596.439702  	99.971887 
2597.876581  	99.955804 
2599.313459  	99.956457 
2600.750338  	99.904003 
2602.187217  	99.934466 
2603.624095  	99.984457 
2605.060974  	99.933642 
2606.497853  	99.947135 
2607.934731  	99.940452 
2609.371610  	99.896570 
2610.808489  	99.941400 
2612.245367  	99.939481 
2613.682246  	99.910158 
2615.119124  	99.907089 
2616.556003  	99.895722 
2617.992882  	99.947364 
2619.429760  	99.949921 
2620.866639  	99.891725 
2622.303518  	99.904023 
2623.740396  	99.905456 
2625.177275  	99.913339 
2626.614154  	99.931468 
2628.051032  	99.891861 
2629.487911  	99.896297 
2630.924789  	99.913081 
2632.361668  	99.904740 
2633.798547  	99.922541 
2635.235425  	99.901218 
2636.672304  	99.896533 
2638.109183  	99.917836 
2639.546061  	99.884879 
2640.982940  	99.886482 
2642.419819  	99.897777 
2643.856697  	99.879963 
2645.293576  	99.897556 
2646.730454  	99.889538 
2648.167333  	99.867578 
2649.604212  	99.861414 
2651.041090  	99.843717 
2652.477969  	99.869539 
2653.914848  	99.888740 
2655.351726  	99.883807 
2656.788605  	99.909075 
2658.225484  	99.895038 
2659.662362  	99.883201 
2661.099241  	99.904101 
2662.536120  	99.894879 
2663.972998  	99.917232 
2665.409877  	99.929016 
2666.846755  	99.898753 
2668.283634  	99.918454 
2669.720513  	99.922906 
2671.157391  	99.912546 
2672.594270  	99.929805 
2674.031149  	99.909302 
2675.468027  	99.915938 
2676.904906  	99.943916 
2678.341785  	99.932892 
2679.778663  	99.942058 
2681.215542  	99.923991 
2682.652420  	99.895168 
2684.089299  	99.909187 
2685.526178  	99.884291 
2686.963056  	99.875418 
2688.399935  	99.901730 
2689.836814  	99.886449 
2691.273692  	99.879597 
2692.710571  	99.869708 
2694.147450  	99.861553 
2695.584328  	99.879210 
2697.021207  	99.846973 
2698.458086  	99.827789 
2699.894964  	99.845397 
2701.331843  	99.827719 
2702.768721  	99.827539 
2704.205600  	99.824360 
2705.642479  	99.813202 
2707.079357  	99.834512 
2708.516236  	99.810413 
2709.953115  	99.784446 
2711.389993  	99.793932 
2712.826872  	99.776078 
2714.263751  	99.776868 
2715.700629  	99.770303 
2717.137508  	99.744471 
2718.574386  	99.763412 
2720.011265  	99.768414 
2721.448144  	99.772261 
2722.885022  	99.785251 
2724.321901  	99.744658 
2725.758780  	99.719992 
2727.195658  	99.722531 
2728.632537  	99.727933 
2730.069416  	99.742309 
2731.506294  	99.703292 
2732.943173  	99.683824 
2734.380052  	99.709336 
2735.816930  	99.685270 
2737.253809  	99.684688 
2738.690687  	99.707809 
2740.127566  	99.697468 
2741.564445  	99.697432 
2743.001323  	99.680369 
2744.438202  	99.685239 
2745.875081  	99.717678 
2747.311959  	99.694551 
2748.748838  	99.690056 
2750.185717  	99.691497 
2751.622595  	99.662229 
2753.059474  	99.689426 
2754.496352  	99.703696 
2755.933231  	99.682988 
2757.370110  	99.676240 
2758.806988  	99.649402 
2760.243867  	99.668663 
2761.680746  	99.693366 
2763.117624  	99.659988 
2764.554503  	99.666818 
2765.991382  	99.658281 
2767.428260  	99.624500 
2768.865139  	99.639727 
2770.302018  	99.629615 
2771.738896  	99.629284 
2773.175775  	99.642901 
2774.612653  	99.610269 
2776.049532  	99.621662 
2777.486411  	99.632730 
2778.923289  	99.603125 
2780.360168  	99.609608 
2781.797047  	99.600208 
2783.233925  	99.588725 
2784.670804  	99.584163 
2786.107683  	99.542321 
2787.544561  	99.540122 
2788.981440  	99.535668 
2790.418318  	99.505785 
2791.855197  	99.520807 
2793.292076  	99.499718 
2794.728954  	99.471402 
2796.165833  	99.481351 
2797.602712  	99.443629 
2799.039590  	99.414062 
2800.476469  	99.401323 
2801.913348  	99.363795 
2803.350226  	99.344596 
2804.787105  	99.309811 
2806.223984  	99.283786 
2807.660862  	99.274654 
2809.097741  	99.226712 
2810.534619  	99.204097 
2811.971498  	99.172529 
2813.408377  	99.107987 
2814.845255  	99.086029 
2816.282134  	99.037047 
2817.719013  	98.979275 
2819.155891  	98.947889 
2820.592770  	98.873708 
2822.029649  	98.828127 
2823.466527  	98.782117 
2824.903406  	98.690916 
2826.340284  	98.653662 
2827.777163  	98.587204 
2829.214042  	98.471495 
2830.650920  	98.381075 
2832.087799  	98.240452 
2833.524678  	98.081111 
2834.961556  	97.918300 
2836.398435  	97.715695 
2837.835314  	97.519966 
2839.272192  	97.250396 
2840.709071  	96.930639 
2842.145950  	96.658385 
2843.582828  	96.337469 
2845.019707  	95.982677 
2846.456585  	95.629667 
2847.893464  	95.237898 
2849.330343  	94.860463 
2850.767221  	94.460089 
2852.204100  	94.036846 
2853.640979  	93.643740 
2855.077857  	93.208114 
2856.514736  	92.770212 
2857.951615  	92.370054 
2859.388493  	91.987404 
2860.825372  	91.708378 
2862.262250  	91.509312 
2863.699129  	91.364566 
2865.136008  	91.317484 
2866.572886  	91.285029 
2868.009765  	91.281433 
2869.446644  	91.353483 
2870.883522  	91.426174 
2872.320401  	91.529269 
2873.757280  	91.682044 
2875.194158  	91.853695 
2876.631037  	92.059829 
2878.067916  	92.244485 
2879.504794  	92.407974 
2880.941673  	92.576871 
2882.378551  	92.697447 
2883.815430  	92.773235 
2885.252309  	92.779845 
2886.689187  	92.734044 
2888.126066  	92.692830 
2889.562945  	92.560430 
2890.999823  	92.363051 
2892.436702  	92.203028 
2893.873581  	92.027514 
2895.310459  	91.852855 
2896.747338  	91.693253 
2898.184216  	91.508807 
2899.621095  	91.324985 
2901.057974  	91.122967 
2902.494852  	90.909779 
2903.931731  	90.703639 
2905.368610  	90.481561 
2906.805488  	90.275073 
2908.242367  	90.042844 
2909.679246  	89.772662 
2911.116124  	89.528730 
2912.553003  	89.236166 
2913.989882  	88.889468 
2915.426760  	88.547142 
2916.863639  	88.165060 
2918.300517  	87.787850 
2919.737396  	87.436282 
2921.174275  	87.058451 
2922.611153  	86.669880 
2924.048032  	86.267540 
2925.484911  	85.900881 
2926.921789  	85.605091 
2928.358668  	85.318400 
2929.795547  	85.072072 
2931.232425  	84.866664 
2932.669304  	84.640192 
2934.106182  	84.434154 
2935.543061  	84.253412 
2936.979940  	84.072551 
2938.416818  	83.912548 
2939.853697  	83.771752 
2941.290576  	83.664325 
2942.727454  	83.593430 
2944.164333  	83.551190 
2945.601212  	83.546246 
2947.038090  	83.563831 
2948.474969  	83.644953 
2949.911847  	83.810593 
2951.348726  	83.997040 
2952.785605  	84.233015 
2954.222483  	84.559506 
2955.659362  	84.943855 
2957.096241  	85.388095 
2958.533119  	85.868063 
2959.969998  	86.367452 
2961.406877  	86.909048 
2962.843755  	87.461962 
2964.280634  	88.032443 
2965.717513  	88.606572 
2967.154391  	89.136481 
2968.591270  	89.678945 
2970.028148  	90.224836 
2971.465027  	90.747805 
2972.901906  	91.280423 
2974.338784  	91.758492 
2975.775663  	92.215797 
2977.212542  	92.683709 
2978.649420  	93.062247 
2980.086299  	93.426529 
2981.523178  	93.817697 
2982.960056  	94.192852 
2984.396935  	94.610597 
2985.833813  	94.984992 
2987.270692  	95.286669 
2988.707571  	95.598222 
2990.144449  	95.854973 
2991.581328  	96.084773 
2993.018207  	96.301976 
2994.455085  	96.471348 
2995.891964  	96.693726 
2997.328843  	96.911801 
2998.765721  	97.083851 
3000.202600  	97.285796 
3001.639479  	97.444044 
3003.076357  	97.590537 
3004.513236  	97.761814 
3005.950114  	97.893061 
3007.386993  	98.050016 
3008.823872  	98.204607 
3010.260750  	98.327794 
3011.697629  	98.440645 
3013.134508  	98.472660 
3014.571386  	98.542927 
3016.008265  	98.652221 
3017.445144  	98.664831 
3018.882022  	98.719575 
3020.318901  	98.781761 
3021.755779  	98.777911 
3023.192658  	98.838154 
3024.629537  	98.873746 
3026.066415  	98.881650 
3027.503294  	98.925326 
3028.940173  	98.912993 
3030.377051  	98.928546 
3031.813930  	98.934157 
3033.250809  	98.869460 
3034.687687  	98.903726 
3036.124566  	98.946304 
3037.561445  	98.935633 
3038.998323  	98.958719 
3040.435202  	98.946141 
3041.872080  	98.960758 
3043.308959  	98.999457 
3044.745838  	98.984304 
3046.182716  	99.013400 
3047.619595  	99.017709 
3049.056474  	98.990270 
3050.493352  	99.017886 
3051.930231  	98.991978 
3053.367110  	98.977479 
3054.803988  	98.995930 
3056.240867  	98.949758 
3057.677745  	98.943955 
3059.114624  	98.939139 
3060.551503  	98.926706 
3061.988381  	98.985160 
3063.425260  	98.976817 
3064.862139  	98.972380 
3066.299017  	99.026753 
3067.735896  	99.002172 
3069.172775  	99.021824 
3070.609653  	99.075887 
3072.046532  	99.067144 
3073.483411  	99.084231 
3074.920289  	99.066506 
3076.357168  	99.045539 
3077.794046  	99.088905 
3079.230925  	99.101230 
3080.667804  	99.125347 
3082.104682  	99.128745 
3083.541561  	99.112057 
3084.978440  	99.183649 
3086.415318  	99.190873 
3087.852197  	99.152232 
3089.289076  	99.183487 
3090.725954  	99.162132 
3092.162833  	99.165637 
3093.599711  	99.214099 
3095.036590  	99.183113 
3096.473469  	99.160668 
3097.910347  	99.162021 
3099.347226  	99.181182 
3100.784105  	99.202047 
3102.220983  	99.135758 
3103.657862  	99.118719 
3105.094741  	99.144264 
3106.531619  	99.110780 
3107.968498  	99.134974 
3109.405377  	99.145268 
3110.842255  	99.123971 
3112.279134  	99.179736 
3113.716012  	99.190940 
3115.152891  	99.179278 
3116.589770  	99.193327 
3118.026648  	99.170322 
3119.463527  	99.189344 
3120.900406  	99.189264 
3122.337284  	99.152563 
3123.774163  	99.182118 
3125.211042  	99.184411 
3126.647920  	99.179133 
3128.084799  	99.187090 
3129.521677  	99.152790 
3130.958556  	99.181877 
3132.395435  	99.187743 
3133.832313  	99.122710 
3135.269192  	99.147582 
3136.706071  	99.170229 
3138.142949  	99.142900 
3139.579828  	99.134772 
3141.016707  	99.119538 
3142.453585  	99.124534 
3143.890464  	99.110166 
3145.327343  	99.101639 
3146.764221  	99.130504 
3148.201100  	99.064057 
3149.637978  	99.024710 
3151.074857  	99.060500 
3152.511736  	99.005592 
3153.948614  	98.991576 
3155.385493  	99.012548 
3156.822372  	98.967273 
3158.259250  	98.995371 
3159.696129  	99.021766 
3161.133008  	98.987677 
3162.569886  	98.977721 
3164.006765  	98.945013 
3165.443643  	98.939600 
3166.880522  	98.943531 
3168.317401  	98.895543 
3169.754279  	98.889427 
3171.191158  	98.881554 
3172.628037  	98.864572 
3174.064915  	98.871403 
3175.501794  	98.833937 
3176.938673  	98.838789 
3178.375551  	98.854552 
3179.812430  	98.791264 
3181.249309  	98.772650 
3182.686187  	98.772952 
3184.123066  	98.759225 
3185.559944  	98.758139 
3186.996823  	98.711290 
3188.433702  	98.695796 
3189.870580  	98.694299 
3191.307459  	98.662742 
3192.744338  	98.700612 
3194.181216  	98.719909 
3195.618095  	98.700905 
3197.054974  	98.682502 
3198.491852  	98.582272 
3199.928731  	98.541195 
3201.365609  	98.571472 
3202.802488  	98.547990 
3204.239367  	98.549852 
3205.676245  	98.534583 
3207.113124  	98.527422 
3208.550003  	98.565921 
3209.986881  	98.494473 
3211.423760  	98.454743 
3212.860639  	98.488439 
3214.297517  	98.426265 
3215.734396  	98.412108 
3217.171274  	98.435672 
3218.608153  	98.407938 
3220.045032  	98.404474 
3221.481910  	98.350301 
3222.918789  	98.322325 
3224.355668  	98.365343 
3225.792546  	98.340290 
3227.229425  	98.319783 
3228.666304  	98.289972 
3230.103182  	98.255796 
3231.540061  	98.309690 
3232.976940  	98.279684 
3234.413818  	98.212318 
3235.850697  	98.215856 
3237.287575  	98.157715 
3238.724454  	98.128423 
3240.161333  	98.127324 
3241.598211  	98.074583 
3243.035090  	98.067524 
3244.471969  	98.018682 
3245.908847  	97.965048 
3247.345726  	98.002726 
3248.782605  	97.983072 
3250.219483  	97.954519 
3251.656362  	97.939111 
3253.093240  	97.882157 
3254.530119  	97.870086 
3255.966998  	97.821443 
3257.403876  	97.769660 
3258.840755  	97.793341 
3260.277634  	97.739088 
3261.714512  	97.680343 
3263.151391  	97.675722 
3264.588270  	97.646524 
3266.025148  	97.647958 
3267.462027  	97.612975 
3268.898906  	97.570964 
3270.335784  	97.577778 
3271.772663  	97.497546 
3273.209541  	97.437087 
3274.646420  	97.419605 
3276.083299  	97.343236 
3277.520177  	97.355347 
3278.957056  	97.376658 
3280.393935  	97.320132 
3281.830813  	97.291828 
3283.267692  	97.228921 
3284.704571  	97.200932 
3286.141449  	97.237090 
3287.578328  	97.214157 
3289.015206  	97.206835 
3290.452085  	97.167590 
3291.888964  	97.077353 
3293.325842  	97.059335 
3294.762721  	97.034680 
3296.199600  	97.029358 
3297.636478  	97.034000 
3299.073357  	96.946486 
3300.510236  	96.914210 
3301.947114  	96.903833 
3303.383993  	96.849201 
3304.820872  	96.853544 
3306.257750  	96.812602 
3307.694629  	96.747804 
3309.131507  	96.719637 
3310.568386  	96.658880 
3312.005265  	96.666268 
3313.442143  	96.648122 
3314.879022  	96.553143 
3316.315901  	96.556144 
3317.752779  	96.524131 
3319.189658  	96.463744 
3320.626537  	96.486883 
3322.063415  	96.431558 
3323.500294  	96.374804 
3324.937172  	96.366026 
3326.374051  	96.294917 
3327.810930  	96.237539 
3329.247808  	96.164909 
3330.684687  	96.122394 
3332.121566  	96.157250 
3333.558444  	96.092832 
3334.995323  	96.020409 
3336.432202  	95.992242 
3337.869080  	95.902303 
3339.305959  	95.890352 
3340.742838  	95.925174 
3342.179716  	95.910878 
3343.616595  	95.893328 
3345.053473  	95.834275 
3346.490352  	95.815368 
3347.927231  	95.814395 
3349.364109  	95.742482 
3350.800988  	95.736234 
3352.237867  	95.723962 
3353.674745  	95.654273 
3355.111624  	95.636545 
3356.548503  	95.589723 
3357.985381  	95.579099 
3359.422260  	95.610538 
3360.859138  	95.544276 
3362.296017  	95.522870 
3363.732896  	95.536985 
3365.169774  	95.499873 
3366.606653  	95.488260 
3368.043532  	95.419977 
3369.480410  	95.371209 
3370.917289  	95.420391 
3372.354168  	95.432863 
3373.791046  	95.467506 
3375.227925  	95.516098 
3376.664804  	95.553140 
3378.101682  	95.642173 
3379.538561  	95.641227 
3380.975439  	95.633331 
3382.412318  	95.709209 
3383.849197  	95.714061 
3385.286075  	95.771619 
3386.722954  	95.859701 
3388.159833  	95.885206 
3389.596711  	96.041517 
3391.033590  	96.153994 
3392.470469  	96.110441 
3393.907347  	96.163008 
3395.344226  	96.274225 
3396.781104  	96.379091 
3398.217983  	96.489405 
3399.654862  	96.597993 
3401.091740  	96.745877 
3402.528619  	96.791192 
3403.965498  	96.808301 
3405.402376  	96.925601 
3406.839255  	96.954070 
3408.276134  	97.002419 
3409.713012  	97.122168 
3411.149891  	97.144380 
3412.586770  	97.221307 
3414.023648  	97.307236 
3415.460527  	97.313462 
3416.897405  	97.400931 
3418.334284  	97.447890 
3419.771163  	97.414993 
3421.208041  	97.389752 
3422.644920  	97.332742 
3424.081799  	97.391047 
3425.518677  	97.543057 
3426.955556  	97.622465 
3428.392435  	97.679238 
3429.829313  	97.740288 
3431.266192  	97.814748 
3432.703070  	97.843306 
3434.139949  	97.829068 
3435.576828  	97.899537 
3437.013706  	97.872735 
3438.450585  	97.794862 
3439.887464  	97.925990 
3441.324342  	97.976276 
3442.761221  	97.888335 
3444.198100  	97.961172 
3445.634978  	98.047295 
3447.071857  	97.977017 
3448.508736  	97.840208 
3449.945614  	97.866049 
3451.382493  	98.071509 
3452.819371  	98.172542 
3454.256250  	98.171880 
3455.693129  	98.214831 
3457.130007  	98.231320 
3458.566886  	98.295018 
3460.003765  	98.355861 
3461.440643  	98.322304 
3462.877522  	98.335449 
3464.314401  	98.390459 
3465.751279  	98.486549 
3467.188158  	98.570642 
3468.625036  	98.524737 
3470.061915  	98.540905 
3471.498794  	98.619406 
3472.935672  	98.653436 
3474.372551  	98.706139 
3475.809430  	98.655171 
3477.246308  	98.628680 
3478.683187  	98.770533 
3480.120066  	98.817309 
3481.556944  	98.742793 
3482.993823  	98.635839 
3484.430701  	98.620819 
3485.867580  	98.811991 
3487.304459  	98.887018 
3488.741337  	98.813857 
3490.178216  	98.846215 
3491.615095  	98.848250 
3493.051973  	98.893242 
3494.488852  	98.990002 
3495.925731  	98.956133 
3497.362609  	98.965104 
3498.799488  	98.997863 
3500.236367  	99.000603 
3501.673245  	99.023499 
3503.110124  	98.802076 
3504.547002  	98.580702 
3505.983881  	98.774249 
3507.420760  	99.036517 
3508.857638  	99.086387 
3510.294517  	98.915477 
3511.731396  	98.825433 
3513.168274  	98.995456 
3514.605153  	99.150083 
3516.042032  	99.240864 
3517.478910  	99.257172 
3518.915789  	99.165188 
3520.352667  	99.291272 
3521.789546  	99.389280 
3523.226425  	99.073627 
3524.663303  	98.806781 
3526.100182  	98.834762 
3527.537061  	98.950874 
3528.973939  	99.082296 
3530.410818  	99.076969 
3531.847697  	99.104890 
3533.284575  	99.284256 
3534.721454  	99.375217 
3536.158333  	99.314645 
3537.595211  	99.255175 
3539.032090  	99.395166 
3540.468968  	99.580549 
3541.905847  	99.549123 
3543.342726  	99.490775 
3544.779604  	99.384306 
3546.216483  	99.033922 
3547.653362  	98.885274 
3549.090240  	99.169330 
3550.527119  	99.584394 
3551.963998  	99.744634 
3553.400876  	99.384650 
3554.837755  	99.178729 
3556.274633  	99.405572 
3557.711512  	99.623070 
3559.148391  	99.726050 
3560.585269  	99.728518 
3562.022148  	99.658166 
3563.459027  	99.670699 
3564.895905  	99.703449 
3566.332784  	99.520758 
3567.769663  	98.795812 
3569.206541  	98.423106 
3570.643420  	98.931750 
3572.080299  	99.493559 
3573.517177  	99.642639 
3574.954056  	99.585584 
3576.390934  	99.589121 
3577.827813  	99.747483 
3579.264692  	99.854585 
3580.701570  	99.751810 
3582.138449  	99.677391 
3583.575328  	99.716805 
3585.012206  	99.945466 
3586.449085  	100.170367 
3587.885964  	99.525950 
3589.322842  	98.716575 
3590.759721  	99.012516 
3592.196599  	99.637869 
3593.633478  	99.856536 
3595.070357  	99.312671 
3596.507235  	98.883530 
3597.944114  	99.247820 
3599.380993  	99.682093 
3600.817871  	99.686108 
3602.254750  	99.374852 
3603.691629  	99.204744 
3605.128507  	99.533605 
3606.565386  	99.893845 
3608.002265  	99.630705 
3609.439143  	99.103352 
3610.876022  	99.176169 
3612.312900  	99.637621 
3613.749779  	99.477287 
3615.186658  	98.519264 
3616.623536  	98.291644 
3618.060415  	98.551355 
3619.497294  	98.279025 
3620.934172  	97.982493 
3622.371051  	98.257643 
3623.807930  	98.603867 
3625.244808  	98.978909 
3626.681687  	99.560896 
3628.118565  	100.197659 
3629.555444  	99.411721 
3630.992323  	98.308121 
3632.429201  	98.792285 
3633.866080  	99.281055 
3635.302959  	99.057274 
3636.739837  	98.867554 
3638.176716  	99.117573 
3639.613595  	99.575504 
3641.050473  	99.705583 
3642.487352  	99.441619 
3643.924231  	99.334338 
3645.361109  	99.486801 
3646.797988  	99.705623 
3648.234866  	99.867951 
3649.671745  	99.168514 
3651.108624  	97.764827 
3652.545502  	97.699369 
3653.982381  	98.536987 
3655.419260  	99.275020 
3656.856138  	99.024116 
3658.293017  	98.484431 
3659.729896  	98.930659 
3661.166774  	99.500232 
3662.603653  	99.521067 
3664.040531  	99.182393 
3665.477410  	98.888845 
3666.914289  	99.311426 
3668.351167  	100.210647 
3669.788046  	100.188143 
3671.224925  	98.819634 
3672.661803  	98.954188 
3674.098682  	100.316206 
3675.535561  	101.192204 
3676.972439  	98.167358 
3678.409318  	97.404325 
3679.846197  	98.231906 
3681.283075  	98.697590 
3682.719954  	98.524779 
3684.156832  	98.471791 
3685.593711  	98.699437 
3687.030590  	99.151446 
3688.467468  	99.408267 
3689.904347  	98.502985 
3691.341226  	97.297754 
3692.778104  	97.094767 
3694.214983  	97.786370 
3695.651862  	98.360736 
3697.088740  	98.569139 
3698.525619  	98.851085 
3699.962497  	99.387690 
3701.399376  	99.791984 
3702.836255  	99.441733 
3704.273133  	99.134388 
3705.710012  	99.645616 
3707.146891  	100.421537 
3708.583769  	100.940603 
3710.020648  	101.263878 
3711.457527  	100.993094 
3712.894405  	99.979682 
3714.331284  	99.563957 
3715.768163  	99.911317 
3717.205041  	100.385350 
3718.641920  	100.633983 
3720.078798  	100.840110 
3721.515677  	101.069940 
3722.952556  	100.883196 
3724.389434  	100.518098 
3725.826313  	100.167207 
3727.263192  	99.755285 
3728.700070  	100.131202 
3730.136949  	101.015853 
3731.573828  	101.880819 
3733.010706  	102.104198 
3734.447585  	101.472867 
3735.884463  	100.886891 
3737.321342  	100.274397 
3738.758221  	99.731970 
3740.195099  	99.813575 
3741.631978  	100.750354 
3743.068857  	102.069518 
3744.505735  	103.023896 
3745.942614  	100.804433 
3747.379493  	100.042135 
3748.816371  	101.091880 
3750.253250  	101.715451 
3751.690129  	100.401959 
3753.127007  	99.725514 
3754.563886  	100.213405 
3756.000764  	100.803169 
3757.437643  	101.190972 
3758.874522  	101.048317 
3760.311400  	100.501350 
3761.748279  	100.285516 
3763.185158  	100.890150 
3764.622036  	101.474712 
3766.058915  	101.130299 
3767.495794  	100.871899 
3768.932672  	101.361483 
3770.369551  	101.460068 
3771.806429  	100.823735 
3773.243308  	100.566468 
3774.680187  	100.794755 
3776.117065  	101.161148 
3777.553944  	101.434656 
3778.990823  	101.597442 
3780.427701  	101.126853 
3781.864580  	100.623368 
3783.301459  	100.936011 
3784.738337  	101.258849 
3786.175216  	100.881040 
3787.612094  	100.703282 
3789.048973  	101.072088 
3790.485852  	101.398719 
3791.922730  	101.318515 
3793.359609  	101.322260 
3794.796488  	101.791879 
3796.233366  	101.722622 
3797.670245  	100.783228 
3799.107124  	101.119751 
3800.544002  	102.381067 
3801.980881  	102.102216 
3803.417760  	100.252739 
3804.854638  	100.668563 
3806.291517  	101.830200 
3807.728395  	101.532600 
3809.165274  	100.414782 
3810.602153  	100.544949 
3812.039031  	101.041848 
3813.475910  	101.561385 
3814.912789  	102.183267 
3816.349667  	101.814673 
3817.786546  	100.661969 
3819.223425  	101.175337 
3820.660303  	102.170036 
3822.097182  	100.860508 
3823.534060  	99.783467 
3824.970939  	100.783782 
3826.407818  	101.713435 
3827.844696  	101.141803 
3829.281575  	100.727621 
3830.718454  	101.146943 
3832.155332  	101.349006 
3833.592211  	101.120992 
3835.029090  	101.256351 
3836.465968  	101.833087 
3837.902847  	101.937244 
3839.339726  	101.058127 
3840.776604  	100.491289 
3842.213483  	100.421145 
3843.650361  	100.326913 
3845.087240  	100.434651 
3846.524119  	100.700924 
3847.960997  	101.009173 
3849.397876  	101.440072 
3850.834755  	101.945601 
3852.271633  	102.683587 
3853.708512  	102.526667 
3855.145391  	100.173951 
3856.582269  	99.751862 
3858.019148  	100.177299 
3859.456026  	100.566967 
3860.892905  	100.890379 
3862.329784  	101.469339 
3863.766662  	101.870809 
3865.203541  	101.239382 
3866.640420  	100.518665 
3868.077298  	100.926159 
3869.514177  	101.180727 
3870.951056  	100.234751 
3872.387934  	100.308925 
3873.824813  	101.010989 
3875.261692  	100.970090 
3876.698570  	100.559374 
3878.135449  	101.094838 
3879.572327  	101.865747 
3881.009206  	100.941051 
3882.446085  	99.973957 
3883.882963  	100.905408 
3885.319842  	101.706028 
3886.756721  	100.773043 
3888.193599  	100.351265 
3889.630478  	101.134234 
3891.067357  	101.788893 
3892.504235  	100.900965 
3893.941114  	100.166686 
3895.377992  	100.678540 
3896.814871  	101.346993 
3898.251750  	101.541531 
3899.688628  	101.275994 
3901.125507  	100.871159 
3902.562386  	100.995238 
3903.999264  	101.105609 
3905.436143  	100.335994 
3906.873022  	99.850722 
3908.309900  	100.293754 
3909.746779  	100.950151 
3911.183658  	101.141832 
3912.620536  	101.067082 
3914.057415  	101.241315 
3915.494293  	101.394046 
3916.931172  	101.265811 
3918.368051  	101.001781 
3919.804929  	100.799752 
3921.241808  	100.796619 
3922.678687  	101.017655 
3924.115565  	101.143957 
3925.552444  	101.035734 
3926.989323  	100.935497 
3928.426201  	101.034777 
3929.863080  	101.200461 
3931.299958  	101.055610 
3932.736837  	100.653854 
3934.173716  	100.580772 
3935.610594  	100.886811 
3937.047473  	101.083626 
3938.484352  	101.020532 
3939.921230  	101.023724 
3941.358109  	101.189225 
3942.794988  	101.082256 
3944.231866  	100.831784 
3945.668745  	100.884654 
3947.105624  	101.008056 
3948.542502  	100.951523 
3949.979381  	100.807029 
3951.416259  	100.798518 
3952.853138  	100.969089 
3954.290017  	101.082083 
3955.726895  	101.072398 
3957.163774  	101.039901 
3958.600653  	100.991438 
3960.037531  	101.000204 
3961.474410  	100.990926 
3962.911289  	100.895732 
3964.348167  	100.948903 
3965.785046  	101.102571 
3967.221924  	101.162727 
3968.658803  	101.134746 
3970.095682  	101.057829 
3971.532560  	101.061816 
3972.969439  	101.104480 
3974.406318  	101.025927 
3975.843196  	100.907562 
3977.280075  	100.852106 
3978.716954  	100.953657 
3980.153832  	101.112465 
3981.590711  	101.094933 
3983.027590  	101.076232 
3984.464468  	101.113118 
3985.901347  	101.078373 
3987.338225  	101.139487 
3988.775104  	101.161619 
3990.211983  	101.023506 
3991.648861  	101.015917 
3993.085740  	101.103700 
3994.522619  	101.138107 
3995.959497  	101.122797 
3997.396376  	101.062233 
3998.833255  	101.108464 
4000.270133  	101.192467 