x               y
399.452262  	85.221824 
400.889141  	85.244573 
402.326019  	83.895004 
403.762898  	84.109691 
405.199776  	84.906165 
406.636655  	84.380809 
408.073534  	83.936898 
409.510412  	83.632273 
410.947291  	83.880147 
412.384170  	84.689500 
413.821048  	84.624473 
415.257927  	84.504621 
416.694806  	85.049551 
418.131684  	86.200073 
419.568563  	87.368844 
421.005441  	86.485587 
422.442320  	85.708421 
423.879199  	84.294239 
425.316077  	82.864753 
426.752956  	83.128967 
428.189835  	84.061599 
429.626713  	84.279448 
431.063592  	84.180985 
432.500471  	84.152727 
433.937349  	83.879873 
435.374228  	83.214042 
436.811106  	82.952485 
438.247985  	83.857740 
439.684864  	84.277209 
441.121742  	83.519621 
442.558621  	82.738328 
443.995500  	82.831015 
445.432378  	82.899821 
446.869257  	82.444012 
448.306136  	82.266559 
449.743014  	82.390832 
451.179893  	81.957176 
452.616772  	81.918740 
454.053650  	82.727143 
455.490529  	82.821392 
456.927407  	82.426496 
458.364286  	82.025478 
459.801165  	81.531423 
461.238043  	81.433968 
462.674922  	81.633614 
464.111801  	81.499493 
465.548679  	80.909882 
466.985558  	80.390381 
468.422437  	80.507022 
469.859315  	80.275113 
471.296194  	79.812075 
472.733072  	80.480395 
474.169951  	80.829957 
475.606830  	80.268589 
477.043708  	80.158178 
478.480587  	80.639450 
479.917466  	81.159170 
481.354344  	81.273503 
482.791223  	81.094485 
484.228102  	81.079012 
485.664980  	80.816966 
487.101859  	80.580805 
488.538738  	80.893444 
489.975616  	81.330004 
491.412495  	81.719550 
492.849373  	81.783690 
494.286252  	81.563513 
495.723131  	81.739564 
497.160009  	82.004622 
498.596888  	81.952946 
500.033767  	81.675239 
501.470645  	81.354117 
502.907524  	81.719363 
504.344403  	82.101336 
505.781281  	81.950827 
507.218160  	81.856746 
508.655038  	81.332586 
510.091917  	80.650096 
511.528796  	80.759290 
512.965674  	80.853352 
514.402553  	80.683695 
515.839432  	80.709286 
517.276310  	80.394911 
518.713189  	80.093019 
520.150068  	80.182900 
521.586946  	80.313283 
523.023825  	80.585410 
524.460704  	80.564224 
525.897582  	80.155400 
527.334461  	80.195774 
528.771339  	80.441464 
530.208218  	80.515842 
531.645097  	80.616410 
533.081975  	80.819389 
534.518854  	80.907430 
535.955733  	80.722223 
537.392611  	80.743854 
538.829490  	80.997874 
540.266369  	80.992383 
541.703247  	80.928328 
543.140126  	80.737613 
544.577004  	80.403789 
546.013883  	80.450411 
547.450762  	80.400227 
548.887640  	79.972685 
550.324519  	79.742944 
551.761398  	79.677681 
553.198276  	79.769578 
554.635155  	79.872721 
556.072034  	79.620534 
557.508912  	79.569409 
558.945791  	79.906286 
560.382670  	80.129309 
561.819548  	80.256200 
563.256427  	80.321188 
564.693305  	80.284674 
566.130184  	80.204197 
567.567063  	80.002887 
569.003941  	79.762123 
570.440820  	79.520922 
571.877699  	79.351234 
573.314577  	79.288566 
574.751456  	79.113926 
576.188335  	79.108692 
577.625213  	79.439976 
579.062092  	79.626402 
580.498970  	79.744867 
581.935849  	79.927293 
583.372728  	80.026889 
584.809606  	80.067176 
586.246485  	80.014324 
587.683364  	80.041559 
589.120242  	80.163879 
590.557121  	80.076321 
591.994000  	80.004101 
593.430878  	80.154601 
594.867757  	80.331479 
596.304636  	80.583159 
597.741514  	80.783039 
599.178393  	80.830615 
600.615271  	80.881768 
602.052150  	80.947332 
603.489029  	81.129916 
604.925907  	81.425123 
606.362786  	81.688684 
607.799665  	81.975303 
609.236543  	82.239817 
610.673422  	82.451919 
612.110301  	82.623871 
613.547179  	82.774100 
614.984058  	82.916807 
616.420936  	83.067160 
617.857815  	83.120211 
619.294694  	83.173444 
620.731572  	83.275076 
622.168451  	83.391200 
623.605330  	83.511055 
625.042208  	83.607371 
626.479087  	83.684737 
627.915966  	83.751247 
629.352844  	83.766924 
630.789723  	83.704795 
632.226602  	83.647958 
633.663480  	83.578909 
635.100359  	83.548488 
636.537237  	83.331535 
637.974116  	83.055450 
639.410995  	83.016496 
640.847873  	83.018702 
642.284752  	82.855124 
643.721631  	82.584748 
645.158509  	82.311573 
646.595388  	82.022365 
648.032267  	81.694301 
649.469145  	81.442099 
650.906024  	81.139793 
652.342902  	80.822913 
653.779781  	80.696041 
655.216660  	80.638609 
656.653538  	80.934703 
658.090417  	81.598498 
659.527296  	82.205926 
660.964174  	82.720724 
662.401053  	83.209601 
663.837932  	83.672390 
665.274810  	84.084099 
666.711689  	84.494416 
668.148568  	84.848179 
669.585446  	85.240843 
671.022325  	85.595824 
672.459203  	86.000329 
673.896082  	86.316270 
675.332961  	86.573309 
676.769839  	86.737330 
678.206718  	86.865024 
679.643597  	87.000069 
681.080475  	87.143177 
682.517354  	87.171025 
683.954233  	87.156881 
685.391111  	87.187412 
686.827990  	87.201547 
688.264868  	87.071822 
689.701747  	86.917242 
691.138626  	86.774492 
692.575504  	86.687365 
694.012383  	86.623466 
695.449262  	86.538588 
696.886140  	86.473656 
698.323019  	86.353924 
699.759898  	86.201495 
701.196776  	86.065205 
702.633655  	85.970445 
704.070533  	85.995080 
705.507412  	86.077210 
706.944291  	86.085197 
708.381169  	86.083173 
709.818048  	86.138862 
711.254927  	86.194060 
712.691805  	86.216341 
714.128684  	86.241850 
715.565563  	86.334745 
717.002441  	86.439101 
718.439320  	86.415193 
719.876199  	86.341721 
721.313077  	86.323194 
722.749956  	86.342954 
724.186834  	86.332811 
725.623713  	86.240051 
727.060592  	86.125144 
728.497470  	86.109390 
729.934349  	86.284617 
731.371228  	86.463035 
732.808106  	86.455132 
734.244985  	86.424747 
735.681864  	86.407242 
737.118742  	86.373603 
738.555621  	86.402472 
739.992499  	86.515193 
741.429378  	86.580995 
742.866257  	86.390253 
744.303135  	85.951977 
745.740014  	85.724805 
747.176893  	85.734842 
748.613771  	85.764911 
750.050650  	85.989405 
751.487529  	86.267130 
752.924407  	86.438288 
754.361286  	86.723376 
755.798165  	87.022974 
757.235043  	87.266866 
758.671922  	87.535524 
760.108800  	87.694911 
761.545679  	87.793915 
762.982558  	87.837609 
764.419436  	87.669058 
765.856315  	87.319859 
767.293194  	86.762857 
768.730072  	86.043185 
770.166951  	85.376161 
771.603830  	84.827511 
773.040708  	84.485692 
774.477587  	84.459050 
775.914465  	84.754400 
777.351344  	85.337393 
778.788223  	85.966362 
780.225101  	86.548668 
781.661980  	87.145962 
783.098859  	87.660536 
784.535737  	88.167390 
785.972616  	88.592788 
787.409495  	88.766870 
788.846373  	88.951846 
790.283252  	89.191730 
791.720131  	89.323552 
793.157009  	89.420132 
794.593888  	89.413273 
796.030766  	89.328491 
797.467645  	89.269765 
798.904524  	89.067957 
800.341402  	88.750797 
801.778281  	88.379395 
803.215160  	87.784238 
804.652038  	87.039473 
806.088917  	86.230798 
807.525796  	85.234730 
808.962674  	84.046628 
810.399553  	82.683172 
811.836431  	81.316507 
813.273310  	80.373573 
814.710189  	80.094850 
816.147067  	80.571800 
817.583946  	81.638664 
819.020825  	82.822464 
820.457703  	83.790334 
821.894582  	84.422388 
823.331461  	84.605600 
824.768339  	84.168641 
826.205218  	83.223273 
827.642097  	82.223217 
829.078975  	81.538229 
830.515854  	81.353926 
831.952732  	81.746979 
833.389611  	82.529930 
834.826490  	83.467399 
836.263368  	84.426422 
837.700247  	85.373606 
839.137126  	86.280960 
840.574004  	86.988126 
842.010883  	87.550642 
843.447762  	88.068670 
844.884640  	88.409927 
846.321519  	88.620492 
847.758397  	88.776207 
849.195276  	88.810785 
850.632155  	88.782729 
852.069033  	88.747383 
853.505912  	88.738519 
854.942791  	88.784281 
856.379669  	88.793720 
857.816548  	88.798840 
859.253427  	88.858914 
860.690305  	88.882798 
862.127184  	88.883364 
863.564063  	88.893364 
865.000941  	88.888740 
866.437820  	88.919123 
867.874698  	88.957253 
869.311577  	88.921826 
870.748456  	88.825629 
872.185334  	88.728301 
873.622213  	88.662922 
875.059092  	88.566947 
876.495970  	88.401243 
877.932849  	88.244019 
879.369728  	88.149782 
880.806606  	88.144922 
882.243485  	88.221797 
883.680363  	88.293417 
885.117242  	88.342862 
886.554121  	88.406387 
887.990999  	88.464038 
889.427878  	88.479730 
890.864757  	88.456761 
892.301635  	88.446074 
893.738514  	88.450754 
895.175393  	88.419953 
896.612271  	88.342819 
898.049150  	88.211984 
899.486029  	88.005687 
900.922907  	87.721484 
902.359786  	87.410105 
903.796664  	87.158318 
905.233543  	86.993826 
906.670422  	86.929852 
908.107300  	86.963807 
909.544179  	86.958025 
910.981058  	86.837947 
912.417936  	86.664032 
913.854815  	86.436971 
915.291694  	86.177044 
916.728572  	85.876231 
918.165451  	85.430346 
919.602329  	84.852547 
921.039208  	84.197188 
922.476087  	83.500658 
923.912965  	82.886502 
925.349844  	82.338259 
926.786723  	81.770452 
928.223601  	81.247072 
929.660480  	80.708967 
931.097359  	80.094610 
932.534237  	79.501431 
933.971116  	78.913743 
935.407995  	78.353974 
936.844873  	77.925756 
938.281752  	77.638446 
939.718630  	77.531725 
941.155509  	77.573134 
942.592388  	77.720291 
944.029266  	78.006027 
945.466145  	78.335074 
946.903024  	78.630386 
948.339902  	78.870945 
949.776781  	79.057589 
951.213660  	79.277180 
952.650538  	79.520390 
954.087417  	79.770929 
955.524295  	80.074871 
956.961174  	80.377786 
958.398053  	80.664506 
959.834931  	80.950014 
961.271810  	81.238611 
962.708689  	81.564375 
964.145567  	81.844760 
965.582446  	82.043515 
967.019325  	82.215053 
968.456203  	82.318488 
969.893082  	82.367762 
971.329961  	82.417090 
972.766839  	82.476614 
974.203718  	82.581425 
975.640596  	82.717893 
977.077475  	82.878014 
978.514354  	83.002238 
979.951232  	82.964234 
981.388111  	82.841957 
982.824990  	82.704608 
984.261868  	82.513228 
985.698747  	82.378431 
987.135626  	82.320623 
988.572504  	82.267591 
990.009383  	82.243061 
991.446261  	82.184350 
992.883140  	82.107295 
994.320019  	82.042529 
995.756897  	81.814276 
997.193776  	81.426974 
998.630655  	80.972235 
1000.067533  	80.351508 
1001.504412  	79.601020 
1002.941291  	78.818786 
1004.378169  	77.959680 
1005.815048  	76.931337 
1007.251926  	75.567671 
1008.688805  	73.924486 
1010.125684  	72.404143 
1011.562562  	71.378105 
1012.999441  	70.979395 
1014.436320  	70.928755 
1015.873198  	70.998085 
1017.310077  	71.258020 
1018.746956  	71.590271 
1020.183834  	71.937888 
1021.620713  	72.302911 
1023.057592  	72.588425 
1024.494470  	72.936283 
1025.931349  	73.368735 
1027.368227  	73.782531 
1028.805106  	74.256550 
1030.241985  	74.665866 
1031.678863  	74.825288 
1033.115742  	74.645154 
1034.552621  	74.025875 
1035.989499  	73.190658 
1037.426378  	72.451505 
1038.863257  	71.904509 
1040.300135  	71.670211 
1041.737014  	71.695655 
1043.173892  	71.873241 
1044.610771  	72.158479 
1046.047650  	72.425602 
1047.484528  	72.738213 
1048.921407  	73.092530 
1050.358286  	73.338015 
1051.795164  	73.510658 
1053.232043  	73.586649 
1054.668922  	73.564238 
1056.105800  	73.544673 
1057.542679  	73.512553 
1058.979558  	73.547102 
1060.416436  	73.654968 
1061.853315  	73.748409 
1063.290193  	73.921990 
1064.727072  	74.093241 
1066.163951  	74.151521 
1067.600829  	74.153499 
1069.037708  	74.079425 
1070.474587  	74.076724 
1071.911465  	74.206876 
1073.348344  	74.286611 
1074.785223  	74.436467 
1076.222101  	74.816768 
1077.658980  	75.433735 
1079.095858  	76.259252 
1080.532737  	77.080793 
1081.969616  	77.829560 
1083.406494  	78.555152 
1084.843373  	79.176566 
1086.280252  	79.682608 
1087.717130  	80.153957 
1089.154009  	80.641375 
1090.590888  	81.087861 
1092.027766  	81.396881 
1093.464645  	81.533295 
1094.901524  	81.439566 
1096.338402  	81.148435 
1097.775281  	80.742849 
1099.212159  	80.171528 
1100.649038  	79.465496 
1102.085917  	78.738161 
1103.522795  	77.950153 
1104.959674  	77.103012 
1106.396553  	76.240924 
1107.833431  	75.366798 
1109.270310  	74.558033 
1110.707189  	73.706105 
1112.144067  	72.707439 
1113.580946  	71.648950 
1115.017824  	70.472737 
1116.454703  	69.403154 
1117.891582  	68.718658 
1119.328460  	68.136585 
1120.765339  	67.537593 
1122.202218  	66.877272 
1123.639096  	66.046475 
1125.075975  	65.268447 
1126.512854  	64.483017 
1127.949732  	63.590633 
1129.386611  	62.698988 
1130.823490  	61.631179 
1132.260368  	60.516620 
1133.697247  	59.479119 
1135.134125  	58.348748 
1136.571004  	57.378933 
1138.007883  	56.553293 
1139.444761  	55.762869 
1140.881640  	55.229720 
1142.318519  	54.739363 
1143.755397  	54.296406 
1145.192276  	53.963673 
1146.629155  	53.429054 
1148.066033  	52.850759 
1149.502912  	52.201208 
1150.939790  	51.348968 
1152.376669  	50.574546 
1153.813548  	49.745267 
1155.250426  	48.957369 
1156.687305  	48.386600 
1158.124184  	47.746443 
1159.561062  	47.307856 
1160.997941  	47.091715 
1162.434820  	46.860863 
1163.871698  	46.947605 
1165.308577  	47.214979 
1166.745456  	47.624463 
1168.182334  	48.363279 
1169.619213  	49.140748 
1171.056091  	50.078510 
1172.492970  	51.156503 
1173.929849  	52.159787 
1175.366727  	53.328226 
1176.803606  	54.478701 
1178.240485  	55.547540 
1179.677363  	56.726614 
1181.114242  	57.793580 
1182.551121  	58.906458 
1183.987999  	60.184919 
1185.424878  	61.421275 
1186.861756  	62.732290 
1188.298635  	64.019330 
1189.735514  	65.185277 
1191.172392  	66.333530 
1192.609271  	67.306655 
1194.046150  	68.158784 
1195.483028  	68.979557 
1196.919907  	69.658301 
1198.356786  	70.335112 
1199.793664  	71.060139 
1201.230543  	71.764641 
1202.667422  	72.482385 
1204.104300  	73.136533 
1205.541179  	73.721222 
1206.978057  	74.200580 
1208.414936  	74.419747 
1209.851815  	74.381993 
1211.288693  	74.075646 
1212.725572  	73.493692 
1214.162451  	72.735076 
1215.599329  	71.788654 
1217.036208  	70.780335 
1218.473087  	69.837431 
1219.909965  	68.872440 
1221.346844  	68.022213 
1222.783722  	67.277081 
1224.220601  	66.488494 
1225.657480  	65.750531 
1227.094358  	64.942129 
1228.531237  	64.082423 
1229.968116  	63.348356 
1231.404994  	62.649001 
1232.841873  	62.137477 
1234.278752  	61.838810 
1235.715630  	61.606386 
1237.152509  	61.557473 
1238.589388  	61.540092 
1240.026266  	61.547186 
1241.463145  	61.697439 
1242.900023  	61.784610 
1244.336902  	61.944207 
1245.773781  	62.213802 
1247.210659  	62.451571 
1248.647538  	62.882464 
1250.084417  	63.432928 
1251.521295  	64.099367 
1252.958174  	65.066874 
1254.395053  	66.123315 
1255.831931  	67.311674 
1257.268810  	68.628161 
1258.705688  	69.827414 
1260.142567  	71.033797 
1261.579446  	72.193563 
1263.016324  	73.153739 
1264.453203  	74.003681 
1265.890082  	74.673985 
1267.326960  	75.188101 
1268.763839  	75.619385 
1270.200718  	75.904208 
1271.637596  	76.145751 
1273.074475  	76.368293 
1274.511353  	76.533563 
1275.948232  	76.714408 
1277.385111  	76.833493 
1278.821989  	76.876503 
1280.258868  	76.864613 
1281.695747  	76.704441 
1283.132625  	76.478939 
1284.569504  	76.205740 
1286.006383  	75.768900 
1287.443261  	75.130979 
1288.880140  	74.208663 
1290.317019  	73.049619 
1291.753897  	71.722548 
1293.190776  	70.372289 
1294.627654  	69.444704 
1296.064533  	69.100383 
1297.501412  	69.427047 
1298.938290  	70.362978 
1300.375169  	71.491646 
1301.812048  	72.633139 
1303.248926  	73.827180 
1304.685805  	74.463103 
1306.122684  	75.329880 
1307.559562  	75.889638 
1308.996441  	76.460354 
1310.433319  	77.628108 
1311.870198  	77.895688 
1313.307077  	77.962514 
1314.743955  	77.897434 
1316.180834  	77.624867 
1317.617713  	77.321093 
1319.054591  	77.194509 
1320.491470  	77.352461 
1321.928349  	77.920749 
1323.365227  	78.818243 
1324.802106  	80.003549 
1326.238985  	81.370977 
1327.675863  	82.280173 
1329.112742  	83.409481 
1330.549620  	84.448894 
1331.986499  	85.315464 
1333.423378  	86.236650 
1334.860256  	86.491692 
1336.297135  	86.553902 
1337.734014  	86.464399 
1339.170892  	86.386969 
1340.607771  	86.460279 
1342.044650  	86.683594 
1343.481528  	86.883845 
1344.918407  	87.035526 
1346.355285  	87.226730 
1347.792164  	87.254270 
1349.229043  	87.239901 
1350.665921  	87.219017 
1352.102800  	87.184598 
1353.539679  	86.984616 
1354.976557  	86.813591 
1356.413436  	86.594762 
1357.850315  	86.374164 
1359.287193  	86.100743 
1360.724072  	85.754968 
1362.160951  	85.379398 
1363.597829  	85.021524 
1365.034708  	84.844389 
1366.471586  	84.775012 
1367.908465  	84.896228 
1369.345344  	85.108198 
1370.782222  	85.318393 
1372.219101  	85.432729 
1373.655980  	85.489220 
1375.092858  	85.511936 
1376.529737  	85.557537 
1377.966616  	85.636912 
1379.403494  	85.750741 
1380.840373  	85.842531 
1382.277251  	85.811024 
1383.714130  	85.659343 
1385.151009  	85.515287 
1386.587887  	85.378468 
1388.024766  	85.417929 
1389.461645  	85.667669 
1390.898523  	85.983664 
1392.335402  	86.357018 
1393.772281  	86.696531 
1395.209159  	87.067955 
1396.646038  	87.197329 
1398.082917  	87.161551 
1399.519795  	87.211290 
1400.956674  	87.293725 
1402.393552  	87.311776 
1403.830431  	87.161840 
1405.267310  	87.058661 
1406.704188  	86.956893 
1408.141067  	86.925317 
1409.577946  	87.024888 
1411.014824  	87.076155 
1412.451703  	87.158596 
1413.888582  	87.215459 
1415.325460  	87.221544 
1416.762339  	87.257157 
1418.199217  	87.341270 
1419.636096  	87.608601 
1421.072975  	87.802772 
1422.509853  	87.861144 
1423.946732  	88.152904 
1425.383611  	88.209337 
1426.820489  	88.058866 
1428.257368  	87.881521 
1429.694247  	87.367510 
1431.131125  	86.801383 
1432.568004  	86.177252 
1434.004883  	85.583707 
1435.441761  	85.143630 
1436.878640  	84.570599 
1438.315518  	84.083529 
1439.752397  	83.684171 
1441.189276  	83.192066 
1442.626154  	82.694383 
1444.063033  	82.146771 
1445.499912  	81.380567 
1446.936790  	80.804444 
1448.373669  	80.017579 
1449.810548  	79.364197 
1451.247426  	78.966903 
1452.684305  	78.660277 
1454.121183  	78.765722 
1455.558062  	78.865949 
1456.994941  	79.177209 
1458.431819  	79.970824 
1459.868698  	79.954796 
1461.305577  	80.320893 
1462.742455  	80.760821 
1464.179334  	81.210241 
1465.616213  	82.036447 
1467.053091  	82.596718 
1468.489970  	83.423294 
1469.926849  	84.500250 
1471.363727  	85.322867 
1472.800606  	86.662695 
1474.237484  	87.512528 
1475.674363  	87.774262 
1477.111242  	88.694940 
1478.548120  	89.455599 
1479.984999  	90.049486 
1481.421878  	90.781362 
1482.858756  	91.226068 
1484.295635  	91.648982 
1485.732514  	92.074225 
1487.169392  	92.290143 
1488.606271  	92.485784 
1490.043149  	92.263133 
1491.480028  	92.029954 
1492.916907  	92.033193 
1494.353785  	91.754469 
1495.790664  	91.343526 
1497.227543  	90.810012 
1498.664421  	89.687394 
1500.101300  	88.453995 
1501.538179  	87.160258 
1502.975057  	85.663205 
1504.411936  	84.441564 
1505.848815  	83.349401 
1507.285693  	79.833443 
1508.722572  	78.146860 
1510.159450  	77.528433 
1511.596329  	77.431352 
1513.033208  	78.419678 
1514.470086  	79.310071 
1515.906965  	80.227516 
1517.343844  	81.706629 
1518.780722  	82.080962 
1520.217601  	82.291500 
1521.654480  	82.653460 
1523.091358  	82.495063 
1524.528237  	82.396996 
1525.965115  	82.318949 
1527.401994  	82.444487 
1528.838873  	82.541154 
1530.275751  	82.545486 
1531.712630  	82.826352 
1533.149509  	83.130792 
1534.586387  	83.500537 
1536.023266  	83.790061 
1537.460145  	84.027897 
1538.897023  	84.406707 
1540.333902  	84.841431 
1541.770780  	85.249769 
1543.207659  	85.598535 
1544.644538  	85.872853 
1546.081416  	86.500356 
1547.518295  	87.017830 
1548.955174  	87.307293 
1550.392052  	87.785628 
1551.828931  	88.288629 
1553.265810  	88.726623 
1554.702688  	89.378144 
1556.139567  	89.876749 
1557.576446  	90.232671 
1559.013324  	89.845737 
1560.450203  	90.871044 
1561.887081  	91.397390 
1563.323960  	91.705865 
1564.760839  	91.964973 
1566.197717  	92.231454 
1567.634596  	92.391636 
1569.071475  	92.529598 
1570.508353  	92.769271 
1571.945232  	92.813738 
1573.382111  	92.780997 
1574.818989  	92.884198 
1576.255868  	92.635093 
1577.692746  	92.275272 
1579.129625  	92.363103 
1580.566504  	92.474494 
1582.003382  	92.531769 
1583.440261  	92.627069 
1584.877140  	92.775294 
1586.314018  	92.972181 
1587.750897  	93.185086 
1589.187776  	93.246831 
1590.624654  	93.270317 
1592.061533  	93.191431 
1593.498412  	93.064468 
1594.935290  	92.945267 
1596.372169  	92.829311 
1597.809047  	92.733887 
1599.245926  	92.629121 
1600.682805  	92.374749 
1602.119683  	92.111941 
1603.556562  	91.834989 
1604.993441  	91.523104 
1606.430319  	91.192367 
1607.867198  	90.771044 
1609.304077  	90.578628 
1610.740955  	90.572979 
1612.177834  	90.531194 
1613.614712  	90.663438 
1615.051591  	90.659465 
1616.488470  	90.672259 
1617.925348  	90.641792 
1619.362227  	90.247735 
1620.799106  	89.997906 
1622.235984  	89.926098 
1623.672863  	89.393278 
1625.109742  	88.766924 
1626.546620  	88.447012 
1627.983499  	88.052337 
1629.420378  	87.604897 
1630.857256  	87.116907 
1632.294135  	86.398165 
1633.731013  	85.982265 
1635.167892  	85.583226 
1636.604771  	84.917110 
1638.041649  	84.657532 
1639.478528  	84.617835 
1640.915407  	85.240690 
1642.352285  	86.203594 
1643.789164  	87.154788 
1645.226043  	87.954825 
1646.662921  	88.267083 
1648.099800  	88.583619 
1649.536678  	88.400738 
1650.973557  	88.356155 
1652.410436  	88.895823 
1653.847314  	88.085430 
1655.284193  	88.179949 
1656.721072  	88.361150 
1658.157950  	88.266850 
1659.594829  	88.337273 
1661.031708  	88.284234 
1662.468586  	88.165938 
1663.905465  	88.152854 
1665.342344  	87.958009 
1666.779222  	87.717523 
1668.216101  	87.540694 
1669.652979  	87.007386 
1671.089858  	86.648348 
1672.526737  	86.253011 
1673.963615  	85.836804 
1675.400494  	85.687533 
1676.837373  	84.956306 
1678.274251  	84.383102 
1679.711130  	83.644015 
1681.148009  	82.641227 
1682.584887  	82.417936 
1684.021766  	82.382873 
1685.458644  	79.978606 
1686.895523  	79.227325 
1688.332402  	77.913471 
1689.769280  	76.520198 
1691.206159  	75.556439 
1692.643038  	74.080305 
1694.079916  	72.748807 
1695.516795  	71.830603 
1696.953674  	69.028062 
1698.390552  	67.898694 
1699.827431  	66.796670 
1701.264310  	63.835979 
1702.701188  	62.537733 
1704.138067  	60.809630 
1705.574945  	59.241629 
1707.011824  	57.912024 
1708.448703  	55.984049 
1709.885581  	54.802765 
1711.322460  	53.542408 
1712.759339  	51.936077 
1714.196217  	51.278301 
1715.633096  	50.471016 
1717.069975  	49.577343 
1718.506853  	50.713560 
1719.943732  	50.974224 
1721.380610  	51.352067 
1722.817489  	52.506994 
1724.254368  	53.654332 
1725.691246  	55.135965 
1727.128125  	56.576206 
1728.565004  	57.793672 
1730.001882  	59.559697 
1731.438761  	61.150881 
1732.875640  	61.888005 
1734.312518  	64.480114 
1735.749397  	67.340264 
1737.186276  	68.809483 
1738.623154  	70.892335 
1740.060033  	73.689077 
1741.496911  	76.273084 
1742.933790  	78.770638 
1744.370669  	81.224257 
1745.807547  	83.626728 
1747.244426  	85.592818 
1748.681305  	87.035295 
1750.118183  	88.894855 
1751.555062  	90.027691 
1752.991941  	91.151715 
1754.428819  	92.736296 
1755.865698  	93.342906 
1757.302576  	94.063248 
1758.739455  	94.874895 
1760.176334  	95.357865 
1761.613212  	96.124251 
1763.050091  	96.792898 
1764.486970  	97.271324 
1765.923848  	97.965040 
1767.360727  	98.171425 
1768.797606  	98.390819 
1770.234484  	98.756260 
1771.671363  	98.825911 
1773.108242  	99.122600 
1774.545120  	99.252800 
1775.981999  	99.235421 
1777.418877  	99.491327 
1778.855756  	99.573010 
1780.292635  	99.683712 
1781.729513  	99.965175 
1783.166392  	100.029785 
1784.603271  	100.234359 
1786.040149  	100.368753 
1787.477028  	100.404210 
1788.913907  	100.616969 
1790.350785  	100.642235 
1791.787664  	100.625942 
1793.224542  	100.817243 
1794.661421  	100.657026 
1796.098300  	100.719665 
1797.535178  	100.864166 
1798.972057  	100.853564 
1800.408936  	101.025310 
1801.845814  	100.988848 
1803.282693  	100.972704 
1804.719572  	101.197452 
1806.156450  	101.203141 
1807.593329  	101.260124 
1809.030207  	101.336456 
1810.467086  	101.239892 
1811.903965  	101.389336 
1813.340843  	101.409910 
1814.777722  	101.372426 
1816.214601  	101.513893 
1817.651479  	101.442284 
1819.088358  	101.484777 
1820.525237  	101.624766 
1821.962115  	101.528914 
1823.398994  	101.665583 
1824.835873  	101.746558 
1826.272751  	101.636713 
1827.709630  	101.767428 
1829.146508  	101.718067 
1830.583387  	101.676400 
1832.020266  	101.785996 
1833.457144  	101.671343 
1834.894023  	101.774535 
1836.330902  	101.867389 
1837.767780  	101.804593 
1839.204659  	101.941709 
1840.641538  	101.915692 
1842.078416  	101.945916 
1843.515295  	102.123303 
1844.952173  	101.887752 
1846.389052  	101.921473 
1847.825931  	101.931146 
1849.262809  	101.814598 
1850.699688  	102.019774 
1852.136567  	102.006434 
1853.573445  	101.819782 
1855.010324  	102.036860 
1856.447203  	101.970861 
1857.884081  	102.114001 
1859.320960  	102.213624 
1860.757839  	101.958679 
1862.194717  	102.101309 
1863.631596  	102.060998 
1865.068474  	102.064132 
1866.505353  	102.275767 
1867.942232  	102.071760 
1869.379110  	101.990465 
1870.815989  	102.044041 
1872.252868  	101.876301 
1873.689746  	101.998001 
1875.126625  	102.009965 
1876.563504  	101.895731 
1878.000382  	102.053023 
1879.437261  	101.950604 
1880.874139  	102.068678 
1882.311018  	102.244724 
1883.747897  	102.080652 
1885.184775  	102.256319 
1886.621654  	102.201807 
1888.058533  	102.090879 
1889.495411  	102.295017 
1890.932290  	102.098413 
1892.369169  	101.994700 
1893.806047  	102.120880 
1895.242926  	101.978935 
1896.679805  	102.072033 
1898.116683  	102.125103 
1899.553562  	102.058640 
1900.990440  	102.218568 
1902.427319  	102.146267 
1903.864198  	102.199787 
1905.301076  	102.391579 
1906.737955  	102.252472 
1908.174834  	102.348732 
1909.611712  	102.415357 
1911.048591  	102.263941 
1912.485470  	102.432623 
1913.922348  	102.362618 
1915.359227  	102.300705 
1916.796105  	102.564471 
1918.232984  	102.421472 
1919.669863  	102.425379 
1921.106741  	102.525231 
1922.543620  	102.405618 
1923.980499  	102.585291 
1925.417377  	102.468186 
1926.854256  	102.330884 
1928.291135  	102.419621 
1929.728013  	102.353711 
1931.164892  	102.441405 
1932.601771  	102.573598 
1934.038649  	102.454030 
1935.475528  	102.621709 
1936.912406  	102.604078 
1938.349285  	102.514184 
1939.786164  	102.738795 
1941.223042  	102.687646 
1942.659921  	102.838318 
1944.096800  	103.038851 
1945.533678  	102.800589 
1946.970557  	102.967599 
1948.407436  	103.007292 
1949.844314  	102.751552 
1951.281193  	103.123400 
1952.718071  	102.841642 
1954.154950  	102.792714 
1955.591829  	103.037923 
1957.028707  	102.684332 
1958.465586  	102.969666 
1959.902465  	103.009042 
1961.339343  	102.778663 
1962.776222  	103.366679 
1964.213101  	103.137105 
1965.649979  	103.055048 
1967.086858  	103.403447 
1968.523737  	102.915578 
1969.960615  	103.245494 
1971.397494  	103.165632 
1972.834372  	102.641792 
1974.271251  	103.196870 
1975.708130  	102.961859 
1977.145008  	102.902741 
1978.581887  	103.271160 
1980.018766  	102.602045 
1981.455644  	102.900211 
1982.892523  	103.059015 
1984.329402  	102.563081 
1985.766280  	102.791648 
1987.203159  	102.644286 
1988.640037  	102.593019 
1990.076916  	102.947192 
1991.513795  	102.632536 
1992.950673  	102.647371 
1994.387552  	102.744728 
1995.824431  	102.501212 
1997.261309  	102.959431 
1998.698188  	102.796076 
2000.135067  	102.649020 
2001.571945  	103.171286 
2003.008824  	102.382533 
2004.445703  	102.446548 
2005.882581  	103.013405 
2007.319460  	102.428308 
2008.756338  	102.784467 
2010.193217  	102.695715 
2011.630096  	102.747868 
2013.066974  	103.667762 
2014.503853  	102.978221 
2015.940732  	103.029478 
2017.377610  	103.344631 
2018.814489  	102.279399 
2020.251368  	102.867637 
2021.688246  	102.991918 
2023.125125  	102.424625 
2024.562003  	103.270430 
2025.998882  	103.108103 
2027.435761  	103.048180 
2028.872639  	103.195794 
2030.309518  	102.226373 
2031.746397  	102.523380 
2033.183275  	102.564382 
2034.620154  	102.139177 
2036.057033  	102.715926 
2037.493911  	102.250523 
2038.930790  	102.224592 
2040.367669  	102.676460 
2041.804547  	102.038619 
2043.241426  	102.210681 
2044.678304  	102.287512 
2046.115183  	102.147820 
2047.552062  	102.794429 
2048.988940  	102.494631 
2050.425819  	102.370438 
2051.862698  	102.526255 
2053.299576  	101.924143 
2054.736455  	102.157393 
2056.173334  	102.456370 
2057.610212  	102.253748 
2059.047091  	102.625845 
2060.483969  	102.489488 
2061.920848  	102.328759 
2063.357727  	102.520842 
2064.794605  	102.172420 
2066.231484  	102.372643 
2067.668363  	102.547828 
2069.105241  	102.241569 
2070.542120  	102.484410 
2071.978999  	102.397150 
2073.415877  	102.358033 
2074.852756  	102.693446 
2076.289635  	102.362128 
2077.726513  	102.363292 
2079.163392  	102.576626 
2080.600270  	102.396861 
2082.037149  	102.611174 
2083.474028  	102.552830 
2084.910906  	102.384076 
2086.347785  	102.602035 
2087.784664  	102.438201 
2089.221542  	102.462665 
2090.658421  	102.614046 
2092.095300  	102.471379 
2093.532178  	102.668027 
2094.969057  	102.551173 
2096.405935  	102.379782 
2097.842814  	102.695767 
2099.279693  	102.573496 
2100.716571  	102.640546 
2102.153450  	102.859550 
2103.590329  	102.636988 
2105.027207  	102.846215 
2106.464086  	102.917796 
2107.900965  	102.721690 
2109.337843  	102.886297 
2110.774722  	102.783665 
2112.211600  	102.949786 
2113.648479  	103.261314 
2115.085358  	102.960391 
2116.522236  	102.989774 
2117.959115  	103.025497 
2119.395994  	102.872454 
2120.832872  	103.208463 
2122.269751  	103.205039 
2123.706630  	103.137286 
2125.143508  	103.347538 
2126.580387  	103.156689 
2128.017266  	103.285863 
2129.454144  	103.450318 
2130.891023  	103.308298 
2132.327901  	103.618444 
2133.764780  	103.568706 
2135.201659  	103.548009 
2136.638537  	103.878819 
2138.075416  	103.455311 
2139.512295  	103.545169 
2140.949173  	103.788630 
2142.386052  	103.504294 
2143.822931  	104.026701 
2145.259809  	103.870578 
2146.696688  	103.234468 
2148.133566  	103.624208 
2149.570445  	103.703202 
2151.007324  	104.065448 
2152.444202  	104.286550 
2153.881081  	103.578591 
2155.317960  	103.952870 
2156.754838  	104.114557 
2158.191717  	103.986719 
2159.628596  	104.638080 
2161.065474  	103.740666 
2162.502353  	103.636528 
2163.939232  	104.020590 
2165.376110  	103.302248 
2166.812989  	103.344517 
2168.249867  	102.925835 
2169.686746  	102.454741 
2171.123625  	103.237878 
2172.560503  	103.259579 
2173.997382  	103.192039 
2175.434261  	103.408267 
2176.871139  	102.930574 
2178.308018  	103.183352 
2179.744897  	103.275809 
2181.181775  	102.974138 
2182.618654  	103.276455 
2184.055532  	102.865118 
2185.492411  	102.703156 
2186.929290  	102.984116 
2188.366168  	102.644308 
2189.803047  	102.961233 
2191.239926  	103.138272 
2192.676804  	102.792538 
2194.113683  	103.076734 
2195.550562  	103.003546 
2196.987440  	102.972575 
2198.424319  	103.152035 
2199.861198  	102.706846 
2201.298076  	102.798996 
2202.734955  	102.989330 
2204.171833  	102.844203 
2205.608712  	103.097716 
2207.045591  	102.863863 
2208.482469  	102.801409 
2209.919348  	103.218552 
2211.356227  	102.963702 
2212.793105  	102.921645 
2214.229984  	102.949800 
2215.666863  	102.746636 
2217.103741  	102.978434 
2218.540620  	102.681178 
2219.977498  	102.427749 
2221.414377  	102.781988 
2222.851256  	102.646423 
2224.288134  	102.747453 
2225.725013  	102.951446 
2227.161892  	102.689273 
2228.598770  	102.845535 
2230.035649  	102.803959 
2231.472528  	102.622359 
2232.909406  	102.845161 
2234.346285  	102.704721 
2235.783164  	102.678654 
2237.220042  	102.705725 
2238.656921  	102.406530 
2240.093799  	102.605513 
2241.530678  	102.707517 
2242.967557  	102.542357 
2244.404435  	102.697637 
2245.841314  	102.610707 
2247.278193  	102.597993 
2248.715071  	102.706441 
2250.151950  	102.527050 
2251.588829  	102.610310 
2253.025707  	102.625065 
2254.462586  	102.514528 
2255.899464  	102.583447 
2257.336343  	102.552323 
2258.773222  	102.586834 
2260.210100  	102.697584 
2261.646979  	102.606951 
2263.083858  	102.642681 
2264.520736  	102.657652 
2265.957615  	102.581989 
2267.394494  	102.723572 
2268.831372  	102.714750 
2270.268251  	102.623726 
2271.705130  	102.650674 
2273.142008  	102.611006 
2274.578887  	102.655072 
2276.015765  	102.649544 
2277.452644  	102.581703 
2278.889523  	102.653016 
2280.326401  	102.644361 
2281.763280  	102.647698 
2283.200159  	102.700177 
2284.637037  	102.633182 
2286.073916  	102.650299 
2287.510795  	102.656310 
2288.947673  	102.595855 
2290.384552  	102.685374 
2291.821430  	102.672797 
2293.258309  	102.593641 
2294.695188  	102.532014 
2296.132066  	102.599124 
2297.568945  	102.576485 
2299.005824  	102.429587 
2300.442702  	102.448588 
2301.879581  	102.514650 
2303.316460  	102.521534 
2304.753338  	102.446742 
2306.190217  	102.518785 
2307.627096  	102.475055 
2309.063974  	102.494024 
2310.500853  	102.593465 
2311.937731  	102.505720 
2313.374610  	102.488156 
2314.811489  	102.508449 
2316.248367  	102.541111 
2317.685246  	102.601756 
2319.122125  	102.432716 
2320.559003  	102.377609 
2321.995882  	102.453823 
2323.432761  	102.324762 
2324.869639  	102.324134 
2326.306518  	102.395574 
2327.743396  	102.445096 
2329.180275  	102.530082 
2330.617154  	102.408883 
2332.054032  	102.433908 
2333.490911  	102.662707 
2334.927790  	102.698655 
2336.364668  	102.769987 
2337.801547  	102.700292 
2339.238426  	102.498344 
2340.675304  	102.563019 
2342.112183  	102.514671 
2343.549062  	102.424329 
2344.985940  	102.443123 
2346.422819  	102.266177 
2347.859697  	102.207242 
2349.296576  	102.287063 
2350.733455  	102.438199 
2352.170333  	102.703300 
2353.607212  	102.720565 
2355.044091  	102.668051 
2356.480969  	102.810887 
2357.917848  	102.717966 
2359.354727  	102.687102 
2360.791605  	102.636201 
2362.228484  	102.357522 
2363.665362  	102.383794 
2365.102241  	102.406564 
2366.539120  	102.384087 
2367.975998  	102.466461 
2369.412877  	102.285479 
2370.849756  	102.215347 
2372.286634  	102.263356 
2373.723513  	102.175226 
2375.160392  	102.216643 
2376.597270  	102.224695 
2378.034149  	102.197587 
2379.471027  	102.271887 
2380.907906  	102.274616 
2382.344785  	102.339785 
2383.781663  	102.447844 
2385.218542  	102.501213 
2386.655421  	102.658902 
2388.092299  	102.739095 
2389.529178  	102.747777 
2390.966057  	102.861295 
2392.402935  	102.883862 
2393.839814  	102.887034 
2395.276693  	102.943264 
2396.713571  	102.918838 
2398.150450  	102.926431 
2399.587328  	102.912009 
2401.024207  	102.904257 
2402.461086  	102.998561 
2403.897964  	102.994078 
2405.334843  	102.999470 
2406.771722  	103.036043 
2408.208600  	102.974342 
2409.645479  	103.022900 
2411.082358  	103.049245 
2412.519236  	102.999163 
2413.956115  	103.060591 
2415.392993  	103.047605 
2416.829872  	103.049161 
2418.266751  	103.102291 
2419.703629  	103.034439 
2421.140508  	103.070819 
2422.577387  	103.078333 
2424.014265  	102.981528 
2425.451144  	103.072510 
2426.888023  	103.105793 
2428.324901  	103.039514 
2429.761780  	103.025840 
2431.198659  	102.945363 
2432.635537  	102.981607 
2434.072416  	103.044134 
2435.509294  	103.000529 
2436.946173  	103.072554 
2438.383052  	103.075189 
2439.819930  	103.041648 
2441.256809  	103.112702 
2442.693688  	103.057866 
2444.130566  	103.054970 
2445.567445  	103.104356 
2447.004324  	103.031519 
2448.441202  	103.045885 
2449.878081  	103.036309 
2451.314959  	103.014403 
2452.751838  	103.082463 
2454.188717  	103.008432 
2455.625595  	102.997539 
2457.062474  	103.077467 
2458.499353  	103.025513 
2459.936231  	103.056414 
2461.373110  	103.059070 
2462.809989  	102.984514 
2464.246867  	103.044067 
2465.683746  	103.035000 
2467.120625  	103.014915 
2468.557503  	103.057870 
2469.994382  	103.003547 
2471.431260  	103.024826 
2472.868139  	103.051923 
2474.305018  	103.026154 
2475.741896  	103.095865 
2477.178775  	103.059657 
2478.615654  	103.008765 
2480.052532  	103.056958 
2481.489411  	103.005613 
2482.926290  	102.982920 
2484.363168  	102.970245 
2485.800047  	102.926436 
2487.236925  	102.991226 
2488.673804  	102.981978 
2490.110683  	102.967164 
2491.547561  	103.037299 
2492.984440  	102.996402 
2494.421319  	102.997310 
2495.858197  	103.032023 
2497.295076  	102.993381 
2498.731955  	103.014751 
2500.168833  	102.995392 
2501.605712  	102.994685 
2503.042591  	103.055764 
2504.479469  	103.010954 
2505.916348  	103.018222 
2507.353226  	103.035459 
2508.790105  	102.998711 
2510.226984  	103.056775 
2511.663862  	103.004997 
2513.100741  	102.938516 
2514.537620  	103.003959 
2515.974498  	102.947301 
2517.411377  	102.951015 
2518.848256  	103.052567 
2520.285134  	103.004850 
2521.722013  	102.975099 
2523.158891  	102.980326 
2524.595770  	102.987455 
2526.032649  	103.025127 
2527.469527  	102.977176 
2528.906406  	102.976824 
2530.343285  	102.978528 
2531.780163  	102.900077 
2533.217042  	102.945422 
2534.653921  	102.965378 
2536.090799  	102.933378 
2537.527678  	102.968858 
2538.964557  	102.928871 
2540.401435  	102.975469 
2541.838314  	103.051569 
2543.275192  	102.944141 
2544.712071  	102.930266 
2546.148950  	102.977217 
2547.585828  	102.966120 
2549.022707  	102.981955 
2550.459586  	102.897580 
2551.896464  	102.855273 
2553.333343  	102.893722 
2554.770222  	102.849355 
2556.207100  	102.895822 
2557.643979  	102.944640 
2559.080857  	102.914563 
2560.517736  	102.947361 
2561.954615  	102.903710 
2563.391493  	102.865902 
2564.828372  	102.873193 
2566.265251  	102.796366 
2567.702129  	102.819330 
2569.139008  	102.825990 
2570.575887  	102.750919 
2572.012765  	102.803359 
2573.449644  	102.793241 
2574.886523  	102.760093 
2576.323401  	102.807195 
2577.760280  	102.741987 
2579.197158  	102.735204 
2580.634037  	102.779434 
2582.070916  	102.725066 
2583.507794  	102.730803 
2584.944673  	102.711685 
2586.381552  	102.684124 
2587.818430  	102.720001 
2589.255309  	102.659062 
2590.692188  	102.651248 
2592.129066  	102.691124 
2593.565945  	102.642063 
2595.002823  	102.658897 
2596.439702  	102.632713 
2597.876581  	102.569240 
2599.313459  	102.629291 
2600.750338  	102.640945 
2602.187217  	102.634580 
2603.624095  	102.642819 
2605.060974  	102.572765 
2606.497853  	102.569309 
2607.934731  	102.574434 
2609.371610  	102.540925 
2610.808489  	102.572404 
2612.245367  	102.568569 
2613.682246  	102.568284 
2615.119124  	102.580544 
2616.556003  	102.532127 
2617.992882  	102.549243 
2619.429760  	102.553531 
2620.866639  	102.512009 
2622.303518  	102.538087 
2623.740396  	102.504447 
2625.177275  	102.466052 
2626.614154  	102.513030 
2628.051032  	102.520762 
2629.487911  	102.524525 
2630.924789  	102.521278 
2632.361668  	102.505609 
2633.798547  	102.532101 
2635.235425  	102.502551 
2636.672304  	102.484678 
2638.109183  	102.529426 
2639.546061  	102.522417 
2640.982940  	102.531898 
2642.419819  	102.543308 
2643.856697  	102.520468 
2645.293576  	102.552151 
2646.730454  	102.562717 
2648.167333  	102.562437 
2649.604212  	102.596634 
2651.041090  	102.580736 
2652.477969  	102.579701 
2653.914848  	102.590794 
2655.351726  	102.573519 
2656.788605  	102.614048 
2658.225484  	102.640548 
2659.662362  	102.625826 
2661.099241  	102.628370 
2662.536120  	102.604152 
2663.972998  	102.609113 
2665.409877  	102.638915 
2666.846755  	102.626619 
2668.283634  	102.639228 
2669.720513  	102.657880 
2671.157391  	102.668580 
2672.594270  	102.688874 
2674.031149  	102.664902 
2675.468027  	102.665151 
2676.904906  	102.694605 
2678.341785  	102.697070 
2679.778663  	102.726983 
2681.215542  	102.726547 
2682.652420  	102.697356 
2684.089299  	102.707210 
2685.526178  	102.691789 
2686.963056  	102.701692 
2688.399935  	102.739131 
2689.836814  	102.728535 
2691.273692  	102.750820 
2692.710571  	102.768364 
2694.147450  	102.745336 
2695.584328  	102.745026 
2697.021207  	102.717679 
2698.458086  	102.718062 
2699.894964  	102.752288 
2701.331843  	102.724309 
2702.768721  	102.716672 
2704.205600  	102.712162 
2705.642479  	102.694211 
2707.079357  	102.740840 
2708.516236  	102.720697 
2709.953115  	102.658694 
2711.389993  	102.683641 
2712.826872  	102.681050 
2714.263751  	102.652255 
2715.700629  	102.655529 
2717.137508  	102.651471 
2718.574386  	102.656324 
2720.011265  	102.654312 
2721.448144  	102.667015 
2722.885022  	102.688445 
2724.321901  	102.651929 
2725.758780  	102.635107 
2727.195658  	102.634028 
2728.632537  	102.602621 
2730.069416  	102.603301 
2731.506294  	102.583372 
2732.943173  	102.552736 
2734.380052  	102.555680 
2735.816930  	102.523344 
2737.253809  	102.515676 
2738.690687  	102.533375 
2740.127566  	102.525182 
2741.564445  	102.555689 
2743.001323  	102.556666 
2744.438202  	102.536314 
2745.875081  	102.570009 
2747.311959  	102.554929 
2748.748838  	102.532465 
2750.185717  	102.546813 
2751.622595  	102.527279 
2753.059474  	102.530291 
2754.496352  	102.516128 
2755.933231  	102.475744 
2757.370110  	102.503544 
2758.806988  	102.506295 
2760.243867  	102.485022 
2761.680746  	102.507025 
2763.117624  	102.498182 
2764.554503  	102.480803 
2765.991382  	102.468124 
2767.428260  	102.449795 
2768.865139  	102.460026 
2770.302018  	102.440561 
2771.738896  	102.413895 
2773.175775  	102.402590 
2774.612653  	102.361151 
2776.049532  	102.371136 
2777.486411  	102.402887 
2778.923289  	102.388788 
2780.360168  	102.399980 
2781.797047  	102.392365 
2783.233925  	102.359789 
2784.670804  	102.361330 
2786.107683  	102.338671 
2787.544561  	102.293572 
2788.981440  	102.246399 
2790.418318  	102.207212 
2791.855197  	102.201559 
2793.292076  	102.182149 
2794.728954  	102.178201 
2796.165833  	102.179444 
2797.602712  	102.113983 
2799.039590  	102.077540 
2800.476469  	102.063433 
2801.913348  	102.011523 
2803.350226  	101.991535 
2804.787105  	101.946086 
2806.223984  	101.866361 
2807.660862  	101.823584 
2809.097741  	101.774535 
2810.534619  	101.748642 
2811.971498  	101.726172 
2813.408377  	101.645560 
2814.845255  	101.582639 
2816.282134  	101.526318 
2817.719013  	101.460673 
2819.155891  	101.411945 
2820.592770  	101.333780 
2822.029649  	101.265299 
2823.466527  	101.190173 
2824.903406  	101.066304 
2826.340284  	100.972849 
2827.777163  	100.860481 
2829.214042  	100.708575 
2830.650920  	100.570092 
2832.087799  	100.364965 
2833.524678  	100.124511 
2834.961556  	99.889585 
2836.398435  	99.588346 
2837.835314  	99.235984 
2839.272192  	98.805487 
2840.709071  	98.292667 
2842.145950  	97.736857 
2843.582828  	97.053573 
2845.019707  	96.250974 
2846.456585  	95.391597 
2847.893464  	94.489866 
2849.330343  	93.642248 
2850.767221  	92.910749 
2852.204100  	92.320863 
2853.640979  	91.896375 
2855.077857  	91.594972 
2856.514736  	91.415429 
2857.951615  	91.357876 
2859.388493  	91.360987 
2860.825372  	91.409448 
2862.262250  	91.505160 
2863.699129  	91.646917 
2865.136008  	91.796887 
2866.572886  	91.874711 
2868.009765  	91.928298 
2869.446644  	92.013329 
2870.883522  	92.104357 
2872.320401  	92.249848 
2873.757280  	92.441435 
2875.194158  	92.630618 
2876.631037  	92.844851 
2878.067916  	93.050551 
2879.504794  	93.237545 
2880.941673  	93.411151 
2882.378551  	93.503000 
2883.815430  	93.534170 
2885.252309  	93.516354 
2886.689187  	93.413112 
2888.126066  	93.249313 
2889.562945  	93.027743 
2890.999823  	92.795195 
2892.436702  	92.559614 
2893.873581  	92.248832 
2895.310459  	91.946422 
2896.747338  	91.708138 
2898.184216  	91.458423 
2899.621095  	91.185727 
2901.057974  	90.875932 
2902.494852  	90.541034 
2903.931731  	90.217282 
2905.368610  	89.855121 
2906.805488  	89.447142 
2908.242367  	89.018233 
2909.679246  	88.553181 
2911.116124  	88.025255 
2912.553003  	87.391084 
2913.989882  	86.678287 
2915.426760  	85.941621 
2916.863639  	85.203145 
2918.300517  	84.494443 
2919.737396  	83.805081 
2921.174275  	83.177322 
2922.611153  	82.677779 
2924.048032  	82.257694 
2925.484911  	81.929965 
2926.921789  	81.762532 
2928.358668  	81.717668 
2929.795547  	81.769083 
2931.232425  	81.893073 
2932.669304  	82.025532 
2934.106182  	82.189215 
2935.543061  	82.376390 
2936.979940  	82.525849 
2938.416818  	82.675969 
2939.853697  	82.830868 
2941.290576  	82.964071 
2942.727454  	83.099133 
2944.164333  	83.200956 
2945.601212  	83.278170 
2947.038090  	83.387522 
2948.474969  	83.500132 
2949.911847  	83.617555 
2951.348726  	83.779724 
2952.785605  	83.996836 
2954.222483  	84.285696 
2955.659362  	84.649535 
2957.096241  	85.118981 
2958.533119  	85.699052 
2959.969998  	86.313578 
2961.406877  	86.945134 
2962.843755  	87.587112 
2964.280634  	88.252369 
2965.717513  	88.984640 
2967.154391  	89.696462 
2968.591270  	90.369354 
2970.028148  	91.046337 
2971.465027  	91.661002 
2972.901906  	92.264394 
2974.338784  	92.874980 
2975.775663  	93.409253 
2977.212542  	93.915417 
2978.649420  	94.389949 
2980.086299  	94.826847 
2981.523178  	95.285378 
2982.960056  	95.716361 
2984.396935  	96.119423 
2985.833813  	96.508175 
2987.270692  	96.858903 
2988.707571  	97.219090 
2990.144449  	97.550431 
2991.581328  	97.816292 
2993.018207  	98.051389 
2994.455085  	98.259335 
2995.891964  	98.492249 
2997.328843  	98.718640 
2998.765721  	98.890941 
3000.202600  	99.089297 
3001.639479  	99.286892 
3003.076357  	99.449329 
3004.513236  	99.611666 
3005.950114  	99.765587 
3007.386993  	99.956453 
3008.823872  	100.134142 
3010.260750  	100.223198 
3011.697629  	100.307828 
3013.134508  	100.402316 
3014.571386  	100.518558 
3016.008265  	100.664141 
3017.445144  	100.738895 
3018.882022  	100.788086 
3020.318901  	100.855335 
3021.755779  	100.902418 
3023.192658  	100.973885 
3024.629537  	101.029321 
3026.066415  	101.051704 
3027.503294  	101.091607 
3028.940173  	101.112780 
3030.377051  	101.118530 
3031.813930  	101.079829 
3033.250809  	101.021957 
3034.687687  	101.040937 
3036.124566  	101.030389 
3037.561445  	101.007878 
3038.998323  	101.050491 
3040.435202  	101.014820 
3041.872080  	100.977552 
3043.308959  	101.023958 
3044.745838  	101.025071 
3046.182716  	101.042635 
3047.619595  	101.077976 
3049.056474  	101.043394 
3050.493352  	101.013949 
3051.930231  	100.984104 
3053.367110  	100.951646 
3054.803988  	100.941910 
3056.240867  	100.920510 
3057.677745  	100.926413 
3059.114624  	100.908639 
3060.551503  	100.859210 
3061.988381  	100.888046 
3063.425260  	100.916055 
3064.862139  	100.909598 
3066.299017  	100.908057 
3067.735896  	100.868141 
3069.172775  	100.884938 
3070.609653  	100.953281 
3072.046532  	100.955985 
3073.483411  	100.949014 
3074.920289  	100.952413 
3076.357168  	100.959178 
3077.794046  	100.974419 
3079.230925  	100.956765 
3080.667804  	100.966233 
3082.104682  	100.989821 
3083.541561  	100.976698 
3084.978440  	100.993310 
3086.415318  	101.013014 
3087.852197  	101.026135 
3089.289076  	101.035418 
3090.725954  	100.987555 
3092.162833  	100.977806 
3093.599711  	101.003379 
3095.036590  	100.970433 
3096.473469  	100.941114 
3097.910347  	100.910290 
3099.347226  	100.878976 
3100.784105  	100.867142 
3102.220983  	100.820840 
3103.657862  	100.829546 
3105.094741  	100.881200 
3106.531619  	100.874146 
3107.968498  	100.889382 
3109.405377  	100.912103 
3110.842255  	100.924014 
3112.279134  	100.960978 
3113.716012  	100.932621 
3115.152891  	100.904448 
3116.589770  	100.923435 
3118.026648  	100.898759 
3119.463527  	100.892423 
3120.900406  	100.874860 
3122.337284  	100.821539 
3123.774163  	100.838999 
3125.211042  	100.839478 
3126.647920  	100.798317 
3128.084799  	100.806159 
3129.521677  	100.829031 
3130.958556  	100.856573 
3132.395435  	100.840831 
3133.832313  	100.763919 
3135.269192  	100.720087 
3136.706071  	100.700884 
3138.142949  	100.699220 
3139.579828  	100.684054 
3141.016707  	100.630589 
3142.453585  	100.638749 
3143.890464  	100.636655 
3145.327343  	100.573624 
3146.764221  	100.560172 
3148.201100  	100.537170 
3149.637978  	100.513720 
3151.074857  	100.531342 
3152.511736  	100.496167 
3153.948614  	100.463809 
3155.385493  	100.423993 
3156.822372  	100.330806 
3158.259250  	100.296014 
3159.696129  	100.268405 
3161.133008  	100.229253 
3162.569886  	100.239936 
3164.006765  	100.212854 
3165.443643  	100.190025 
3166.880522  	100.182014 
3168.317401  	100.106702 
3169.754279  	100.069245 
3171.191158  	100.066609 
3172.628037  	100.031737 
3174.064915  	100.015273 
3175.501794  	99.979173 
3176.938673  	99.909114 
3178.375551  	99.847959 
3179.812430  	99.845813 
3181.249309  	99.894144 
3182.686187  	99.833425 
3184.123066  	99.718974 
3185.559944  	99.700331 
3186.996823  	99.675515 
3188.433702  	99.655488 
3189.870580  	99.661614 
3191.307459  	99.605825 
3192.744338  	99.565777 
3194.181216  	99.531473 
3195.618095  	99.466983 
3197.054974  	99.444043 
3198.491852  	99.412491 
3199.928731  	99.395801 
3201.365609  	99.403598 
3202.802488  	99.355002 
3204.239367  	99.332599 
3205.676245  	99.316112 
3207.113124  	99.271233 
3208.550003  	99.287872 
3209.986881  	99.251783 
3211.423760  	99.159578 
3212.860639  	99.140402 
3214.297517  	99.102349 
3215.734396  	99.044041 
3217.171274  	99.027045 
3218.608153  	99.015130 
3220.045032  	98.998350 
3221.481910  	98.942470 
3222.918789  	98.915940 
3224.355668  	98.939058 
3225.792546  	98.893611 
3227.229425  	98.855208 
3228.666304  	98.834184 
3230.103182  	98.753786 
3231.540061  	98.739261 
3232.976940  	98.731254 
3234.413818  	98.627521 
3235.850697  	98.577755 
3237.287575  	98.579452 
3238.724454  	98.532759 
3240.161333  	98.477601 
3241.598211  	98.459274 
3243.035090  	98.440039 
3244.471969  	98.359896 
3245.908847  	98.302921 
3247.345726  	98.313851 
3248.782605  	98.278279 
3250.219483  	98.222809 
3251.656362  	98.167563 
3253.093240  	98.061039 
3254.530119  	97.985083 
3255.966998  	97.968851 
3257.403876  	97.971813 
3258.840755  	97.945429 
3260.277634  	97.845144 
3261.714512  	97.789985 
3263.151391  	97.771053 
3264.588270  	97.678187 
3266.025148  	97.646827 
3267.462027  	97.689403 
3268.898906  	97.673384 
3270.335784  	97.633369 
3271.772663  	97.571366 
3273.209541  	97.479979 
3274.646420  	97.412853 
3276.083299  	97.375433 
3277.520177  	97.358151 
3278.957056  	97.334982 
3280.393935  	97.337626 
3281.830813  	97.358284 
3283.267692  	97.288846 
3284.704571  	97.201936 
3286.141449  	97.166629 
3287.578328  	97.142447 
3289.015206  	97.189895 
3290.452085  	97.224157 
3291.888964  	97.155806 
3293.325842  	97.100786 
3294.762721  	97.049564 
3296.199600  	96.998126 
3297.636478  	96.981059 
3299.073357  	96.932723 
3300.510236  	96.922967 
3301.947114  	96.958176 
3303.383993  	96.946106 
3304.820872  	96.956069 
3306.257750  	96.955728 
3307.694629  	96.894491 
3309.131507  	96.858816 
3310.568386  	96.824242 
3312.005265  	96.785322 
3313.442143  	96.770055 
3314.879022  	96.730867 
3316.315901  	96.697364 
3317.752779  	96.677838 
3319.189658  	96.645750 
3320.626537  	96.623515 
3322.063415  	96.604693 
3323.500294  	96.593866 
3324.937172  	96.545527 
3326.374051  	96.439015 
3327.810930  	96.405476 
3329.247808  	96.443404 
3330.684687  	96.446224 
3332.121566  	96.419988 
3333.558444  	96.372430 
3334.995323  	96.310903 
3336.432202  	96.250098 
3337.869080  	96.215215 
3339.305959  	96.227428 
3340.742838  	96.205953 
3342.179716  	96.149977 
3343.616595  	96.119699 
3345.053473  	96.076027 
3346.490352  	96.040115 
3347.927231  	96.001993 
3349.364109  	95.943884 
3350.800988  	95.966283 
3352.237867  	95.982113 
3353.674745  	95.897618 
3355.111624  	95.827245 
3356.548503  	95.776243 
3357.985381  	95.764344 
3359.422260  	95.829599 
3360.859138  	95.849070 
3362.296017  	95.790681 
3363.732896  	95.709716 
3365.169774  	95.677678 
3366.606653  	95.727605 
3368.043532  	95.713896 
3369.480410  	95.653464 
3370.917289  	95.661111 
3372.354168  	95.653671 
3373.791046  	95.644779 
3375.227925  	95.647710 
3376.664804  	95.622213 
3378.101682  	95.680657 
3379.538561  	95.766243 
3380.975439  	95.780241 
3382.412318  	95.801622 
3383.849197  	95.808219 
3385.286075  	95.833802 
3386.722954  	95.916346 
3388.159833  	95.964049 
3389.596711  	96.025505 
3391.033590  	96.078821 
3392.470469  	96.101314 
3393.907347  	96.228962 
3395.344226  	96.328782 
3396.781104  	96.327868 
3398.217983  	96.412386 
3399.654862  	96.540115 
3401.091740  	96.635785 
3402.528619  	96.725238 
3403.965498  	96.754635 
3405.402376  	96.764283 
3406.839255  	96.827138 
3408.276134  	96.927802 
3409.713012  	96.997292 
3411.149891  	97.011948 
3412.586770  	97.082136 
3414.023648  	97.179862 
3415.460527  	97.203804 
3416.897405  	97.251422 
3418.334284  	97.313560 
3419.771163  	97.286052 
3421.208041  	97.243446 
3422.644920  	97.292250 
3424.081799  	97.388590 
3425.518677  	97.417715 
3426.955556  	97.451285 
3428.392435  	97.596903 
3429.829313  	97.661697 
3431.266192  	97.626858 
3432.703070  	97.703407 
3434.139949  	97.789144 
3435.576828  	97.815650 
3437.013706  	97.884007 
3438.450585  	97.922675 
3439.887464  	97.899747 
3441.324342  	97.863948 
3442.761221  	97.830665 
3444.198100  	97.868838 
3445.634978  	97.936413 
3447.071857  	97.928044 
3448.508736  	97.907476 
3449.945614  	97.993660 
3451.382493  	98.099619 
3452.819371  	98.091764 
3454.256250  	98.075652 
3455.693129  	98.169038 
3457.130007  	98.240748 
3458.566886  	98.259724 
3460.003765  	98.287839 
3461.440643  	98.289613 
3462.877522  	98.315946 
3464.314401  	98.390812 
3465.751279  	98.448953 
3467.188158  	98.521205 
3468.625036  	98.638986 
3470.061915  	98.750319 
3471.498794  	98.762471 
3472.935672  	98.703675 
3474.372551  	98.744311 
3475.809430  	98.884044 
3477.246308  	99.019321 
3478.683187  	99.087716 
3480.120066  	99.002551 
3481.556944  	98.873839 
3482.993823  	98.904461 
3484.430701  	99.042355 
3485.867580  	99.132659 
3487.304459  	99.107507 
3488.741337  	99.096256 
3490.178216  	99.201325 
3491.615095  	99.263683 
3493.051973  	99.314715 
3494.488852  	99.417878 
3495.925731  	99.436013 
3497.362609  	99.464251 
3498.799488  	99.576923 
3500.236367  	99.612375 
3501.673245  	99.560000 
3503.110124  	99.461377 
3504.547002  	99.437837 
3505.983881  	99.572115 
3507.420760  	99.654122 
3508.857638  	99.604754 
3510.294517  	99.559819 
3511.731396  	99.676088 
3513.168274  	99.867570 
3514.605153  	99.911515 
3516.042032  	99.916566 
3517.478910  	100.066403 
3518.915789  	100.182878 
3520.352667  	100.242923 
3521.789546  	100.259826 
3523.226425  	100.059894 
3524.663303  	99.946885 
3526.100182  	100.117748 
3527.537061  	100.158840 
3528.973939  	100.063930 
3530.410818  	100.079938 
3531.847697  	100.219795 
3533.284575  	100.448634 
3534.721454  	100.568582 
3536.158333  	100.518467 
3537.595211  	100.563504 
3539.032090  	100.789553 
3540.468968  	101.011965 
3541.905847  	101.150665 
3543.342726  	101.218117 
3544.779604  	101.151096 
3546.216483  	100.948342 
3547.653362  	100.916328 
3549.090240  	101.028564 
3550.527119  	101.117591 
3551.963998  	101.141546 
3553.400876  	100.972079 
3554.837755  	100.938927 
3556.274633  	101.191767 
3557.711512  	101.436985 
3559.148391  	101.607431 
3560.585269  	101.772336 
3562.022148  	101.848350 
3563.459027  	101.884021 
3564.895905  	101.933967 
3566.332784  	101.950525 
3567.769663  	101.779727 
3569.206541  	101.565823 
3570.643420  	101.475256 
3572.080299  	101.524365 
3573.517177  	101.615265 
3574.954056  	101.767222 
3576.390934  	101.954836 
3577.827813  	102.062721 
3579.264692  	102.108718 
3580.701570  	102.169786 
3582.138449  	102.325078 
3583.575328  	102.470757 
3585.012206  	102.541686 
3586.449085  	102.670406 
3587.885964  	102.573970 
3589.322842  	102.276953 
3590.759721  	102.224210 
3592.196599  	102.315035 
3593.633478  	102.436925 
3595.070357  	102.479110 
3596.507235  	102.419510 
3597.944114  	102.453100 
3599.380993  	102.647115 
3600.817871  	102.851144 
3602.254750  	103.010954 
3603.691629  	103.112475 
3605.128507  	103.141564 
3606.565386  	103.203168 
3608.002265  	103.333497 
3609.439143  	103.333097 
3610.876022  	103.179373 
3612.312900  	103.079272 
3613.749779  	102.926253 
3615.186658  	102.866167 
3616.623536  	103.057266 
3618.060415  	103.182284 
3619.497294  	102.962352 
3620.934172  	102.945785 
3622.371051  	103.313733 
3623.807930  	103.680613 
3625.244808  	103.784642 
3626.681687  	103.774047 
3628.118565  	104.097373 
3629.555444  	103.641933 
3630.992323  	103.043365 
3632.429201  	103.222602 
3633.866080  	103.285398 
3635.302959  	103.016919 
3636.739837  	103.110730 
3638.176716  	103.331710 
3639.613595  	103.472761 
3641.050473  	103.862516 
3642.487352  	104.253171 
3643.924231  	104.353876 
3645.361109  	104.587419 
3646.797988  	104.964294 
3648.234866  	104.848449 
3649.671745  	104.670499 
3651.108624  	104.378937 
3652.545502  	103.909138 
3653.982381  	103.860280 
3655.419260  	104.098147 
3656.856138  	104.053322 
3658.293017  	104.051561 
3659.729896  	104.242706 
3661.166774  	104.401654 
3662.603653  	104.636791 
3664.040531  	104.921746 
3665.477410  	104.999658 
3666.914289  	105.112310 
3668.351167  	105.391693 
3669.788046  	105.676151 
3671.224925  	105.384104 
3672.661803  	105.061098 
3674.098682  	105.100736 
3675.535561  	104.845423 
3676.972439  	104.249712 
3678.409318  	104.658106 
3679.846197  	104.819102 
3681.283075  	104.749688 
3682.719954  	104.929841 
3684.156832  	105.177413 
3685.593711  	105.249859 
3687.030590  	105.487531 
3688.467468  	105.805737 
3689.904347  	105.430215 
3691.341226  	105.250698 
3692.778104  	105.020433 
3694.214983  	104.801650 
3695.651862  	104.779112 
3697.088740  	104.809796 
3698.525619  	104.841249 
3699.962497  	105.013433 
3701.399376  	105.253527 
3702.836255  	105.331697 
3704.273133  	105.296300 
3705.710012  	105.377023 
3707.146891  	105.545157 
3708.583769  	105.757903 
3710.020648  	105.990475 
3711.457527  	105.735870 
3712.894405  	105.341494 
3714.331284  	105.141531 
3715.768163  	105.156519 
3717.205041  	105.411500 
3718.641920  	105.528929 
3720.078798  	105.377635 
3721.515677  	105.461814 
3722.952556  	105.575138 
3724.389434  	105.611687 
3725.826313  	105.910029 
3727.263192  	105.921493 
3728.700070  	105.536311 
3730.136949  	105.598006 
3731.573828  	105.974632 
3733.010706  	106.155070 
3734.447585  	106.057379 
3735.884463  	105.694332 
3737.321342  	105.116320 
3738.758221  	105.197507 
3740.195099  	105.445806 
3741.631978  	105.629725 
3743.068857  	105.936485 
3744.505735  	106.057994 
3745.942614  	105.316745 
3747.379493  	105.537310 
3748.816371  	105.961514 
3750.253250  	105.747963 
3751.690129  	105.229150 
3753.127007  	105.058748 
3754.563886  	105.067079 
3756.000764  	105.266753 
3757.437643  	105.373185 
3758.874522  	105.279488 
3760.311400  	105.321366 
3761.748279  	105.284654 
3763.185158  	105.325632 
3764.622036  	105.542184 
3766.058915  	105.465788 
3767.495794  	105.360410 
3768.932672  	105.450492 
3770.369551  	105.292057 
3771.806429  	105.308920 
3773.243308  	105.602227 
3774.680187  	105.708386 
3776.117065  	105.610094 
3777.553944  	105.667025 
3778.990823  	105.769585 
3780.427701  	105.503630 
3781.864580  	105.465568 
3783.301459  	105.752077 
3784.738337  	105.732941 
3786.175216  	105.421213 
3787.612094  	105.492264 
3789.048973  	105.667487 
3790.485852  	105.840631 
3791.922730  	105.975034 
3793.359609  	106.116519 
3794.796488  	106.222794 
3796.233366  	106.503985 
3797.670245  	106.468773 
3799.107124  	106.349736 
3800.544002  	106.576716 
3801.980881  	106.428739 
3803.417760  	105.651820 
3804.854638  	105.574600 
3806.291517  	106.031908 
3807.728395  	106.103869 
3809.165274  	105.777848 
3810.602153  	105.884386 
3812.039031  	106.057126 
3813.475910  	106.112490 
3814.912789  	106.374834 
3816.349667  	106.514717 
3817.786546  	106.266861 
3819.223425  	106.288734 
3820.660303  	106.479909 
3822.097182  	106.114040 
3823.534060  	105.752671 
3824.970939  	105.709839 
3826.407818  	105.854424 
3827.844696  	105.937825 
3829.281575  	106.025162 
3830.718454  	106.203166 
3832.155332  	106.264209 
3833.592211  	106.200975 
3835.029090  	106.306976 
3836.465968  	106.605835 
3837.902847  	106.669778 
3839.339726  	106.084835 
3840.776604  	105.672939 
3842.213483  	105.834481 
3843.650361  	105.930378 
3845.087240  	105.865224 
3846.524119  	105.949115 
3847.960997  	106.106029 
3849.397876  	106.103007 
3850.834755  	106.227552 
3852.271633  	106.854780 
3853.708512  	106.563770 
3855.145391  	105.662994 
3856.582269  	105.875182 
3858.019148  	105.872367 
3859.456026  	105.808955 
3860.892905  	105.995436 
3862.329784  	106.077647 
3863.766662  	105.983632 
3865.203541  	105.925511 
3866.640420  	105.851815 
3868.077298  	106.020241 
3869.514177  	106.152494 
3870.951056  	105.531759 
3872.387934  	105.621137 
3873.824813  	105.894315 
3875.261692  	105.847329 
3876.698570  	105.845041 
3878.135449  	105.942816 
3879.572327  	106.040840 
3881.009206  	105.888393 
3882.446085  	105.689005 
3883.882963  	105.744034 
3885.319842  	105.907751 
3886.756721  	105.456373 
3888.193599  	105.188101 
3889.630478  	105.508561 
3891.067357  	105.999503 
3892.504235  	105.835015 
3893.941114  	105.566521 
3895.377992  	105.737683 
3896.814871  	105.970025 
3898.251750  	106.089439 
3899.688628  	106.134961 
3901.125507  	106.117876 
3902.562386  	105.971340 
3903.999264  	105.412995 
3905.436143  	105.012698 
3906.873022  	105.355915 
3908.309900  	105.496053 
3909.746779  	105.430289 
3911.183658  	105.566575 
3912.620536  	105.628032 
3914.057415  	105.782999 
3915.494293  	105.928382 
3916.931172  	105.846962 
3918.368051  	105.687232 
3919.804929  	105.779111 
3921.241808  	105.788594 
3922.678687  	105.710855 
3924.115565  	105.720315 
3925.552444  	105.650419 
3926.989323  	105.609188 
3928.426201  	105.694372 
3929.863080  	105.782851 
3931.299958  	105.782223 
3932.736837  	105.683754 
3934.173716  	105.578133 
3935.610594  	105.628210 
3937.047473  	105.751274 
3938.484352  	105.810708 
3939.921230  	105.870356 
3941.358109  	106.000351 
3942.794988  	105.884481 
3944.231866  	105.671205 
3945.668745  	105.774383 
3947.105624  	105.835949 
3948.542502  	105.682372 
3949.979381  	105.603787 
3951.416259  	105.608489 
3952.853138  	105.662166 
3954.290017  	105.797688 
3955.726895  	105.834884 
3957.163774  	105.772680 
3958.600653  	105.770771 
3960.037531  	105.817542 
3961.474410  	105.751578 
3962.911289  	105.679388 
3964.348167  	105.738867 
3965.785046  	105.825749 
3967.221924  	105.831405 
3968.658803  	105.819738 
3970.095682  	105.829856 
3971.532560  	105.869411 
3972.969439  	105.891807 
3974.406318  	105.809575 
3975.843196  	105.740195 
3977.280075  	105.779003 
3978.716954  	105.851403 
3980.153832  	105.909721 
3981.590711  	105.901190 
3983.027590  	105.905133 
3984.464468  	105.986786 
3985.901347  	106.009561 
3987.338225  	106.006979 
3988.775104  	106.015534 
3990.211983  	105.938158 
3991.648861  	105.873670 
3993.085740  	105.877563 
3994.522619  	105.895565 
3995.959497  	105.946955 
3997.396376  	105.969404 
3998.833255  	105.980042 
4000.270133  	106.012808 