x               y
399.452262  	101.123041 
400.889141  	99.457908 
402.326019  	98.368221 
403.762898  	99.349999 
405.199776  	100.018377 
406.636655  	99.646949 
408.073534  	98.924626 
409.510412  	98.936652 
410.947291  	99.489402 
412.384170  	98.813749 
413.821048  	98.344205 
415.257927  	98.752823 
416.694806  	98.667537 
418.131684  	99.210617 
419.568563  	99.787303 
421.005441  	98.936887 
422.442320  	98.669023 
423.879199  	98.557184 
425.316077  	98.842175 
426.752956  	99.352970 
428.189835  	99.210870 
429.626713  	99.247193 
431.063592  	99.346651 
432.500471  	98.811846 
433.937349  	98.591695 
435.374228  	98.583364 
436.811106  	98.562290 
438.247985  	98.415901 
439.684864  	98.069028 
441.121742  	98.454045 
442.558621  	98.942743 
443.995500  	98.573534 
445.432378  	98.455114 
446.869257  	98.471997 
448.306136  	98.789810 
449.743014  	99.333851 
451.179893  	98.981723 
452.616772  	98.280207 
454.053650  	98.150782 
455.490529  	98.373050 
456.927407  	98.653010 
458.364286  	98.093745 
459.801165  	97.690844 
461.238043  	97.956161 
462.674922  	97.993854 
464.111801  	98.106992 
465.548679  	98.210638 
466.985558  	98.234698 
468.422437  	98.742485 
469.859315  	98.547116 
471.296194  	97.976374 
472.733072  	98.331429 
474.169951  	98.314564 
475.606830  	98.098439 
477.043708  	98.273742 
478.480587  	98.030515 
479.917466  	97.797624 
481.354344  	97.816498 
482.791223  	97.892607 
484.228102  	98.131926 
485.664980  	98.011261 
487.101859  	98.054378 
488.538738  	98.481208 
489.975616  	98.582681 
491.412495  	98.761868 
492.849373  	98.766909 
494.286252  	98.268931 
495.723131  	98.316636 
497.160009  	98.459980 
498.596888  	98.249073 
500.033767  	98.395501 
501.470645  	98.490676 
502.907524  	98.293778 
504.344403  	98.290612 
505.781281  	98.236192 
507.218160  	98.125487 
508.655038  	98.119656 
510.091917  	98.189693 
511.528796  	98.243993 
512.965674  	98.120997 
514.402553  	97.994031 
515.839432  	97.855921 
517.276310  	97.782464 
518.713189  	98.054830 
520.150068  	98.105864 
521.586946  	97.974569 
523.023825  	98.119768 
524.460704  	98.126737 
525.897582  	98.022656 
527.334461  	98.043089 
528.771339  	97.938947 
530.208218  	97.955881 
531.645097  	98.067638 
533.081975  	98.041291 
534.518854  	98.049732 
535.955733  	97.996212 
537.392611  	97.992202 
538.829490  	98.082421 
540.266369  	97.945176 
541.703247  	97.895590 
543.140126  	98.062324 
544.577004  	98.102541 
546.013883  	98.087721 
547.450762  	98.011903 
548.887640  	97.923616 
550.324519  	98.003664 
551.761398  	98.082139 
553.198276  	98.126974 
554.635155  	98.105010 
556.072034  	98.001398 
557.508912  	98.072153 
558.945791  	98.165360 
560.382670  	98.135518 
561.819548  	98.141475 
563.256427  	98.127186 
564.693305  	98.119161 
566.130184  	98.090438 
567.567063  	97.968866 
569.003941  	97.966412 
570.440820  	97.983127 
571.877699  	97.917731 
573.314577  	97.963412 
574.751456  	97.990927 
576.188335  	97.969849 
577.625213  	98.052285 
579.062092  	98.091638 
580.498970  	98.060295 
581.935849  	98.038062 
583.372728  	98.019170 
584.809606  	98.054889 
586.246485  	98.115969 
587.683364  	98.122985 
589.120242  	98.065377 
590.557121  	98.016302 
591.994000  	98.081569 
593.430878  	98.132822 
594.867757  	98.078650 
596.304636  	98.055523 
597.741514  	98.117368 
599.178393  	98.213018 
600.615271  	98.244111 
602.052150  	98.231317 
603.489029  	98.315841 
604.925907  	98.338896 
606.362786  	98.322237 
607.799665  	98.253417 
609.236543  	98.196500 
610.673422  	98.254822 
612.110301  	98.336217 
613.547179  	98.360198 
614.984058  	98.336166 
616.420936  	98.358470 
617.857815  	98.380847 
619.294694  	98.415522 
620.731572  	98.423000 
622.168451  	98.409283 
623.605330  	98.438162 
625.042208  	98.443023 
626.479087  	98.450918 
627.915966  	98.447737 
629.352844  	98.440445 
630.789723  	98.449903 
632.226602  	98.438017 
633.663480  	98.398430 
635.100359  	98.373057 
636.537237  	98.348188 
637.974116  	98.331131 
639.410995  	98.350001 
640.847873  	98.371791 
642.284752  	98.384514 
643.721631  	98.363763 
645.158509  	98.292186 
646.595388  	98.257924 
648.032267  	98.214171 
649.469145  	98.157645 
650.906024  	98.179087 
652.342902  	98.215034 
653.779781  	98.189536 
655.216660  	98.150469 
656.653538  	98.186606 
658.090417  	98.289629 
659.527296  	98.349060 
660.964174  	98.391302 
662.401053  	98.450328 
663.837932  	98.476487 
665.274810  	98.581846 
666.711689  	98.725004 
668.148568  	98.634954 
669.585446  	98.568014 
671.022325  	98.632172 
672.459203  	98.714443 
673.896082  	98.740446 
675.332961  	98.766583 
676.769839  	98.787042 
678.206718  	98.763523 
679.643597  	98.738329 
681.080475  	98.739569 
682.517354  	98.755695 
683.954233  	98.773923 
685.391111  	98.788393 
686.827990  	98.782476 
688.264868  	98.721087 
689.701747  	98.661318 
691.138626  	98.667744 
692.575504  	98.671066 
694.012383  	98.649568 
695.449262  	98.677948 
696.886140  	98.722778 
698.323019  	98.746561 
699.759898  	98.775147 
701.196776  	98.789055 
702.633655  	98.776603 
704.070533  	98.814280 
705.507412  	98.822810 
706.944291  	98.833671 
708.381169  	98.878243 
709.818048  	98.891037 
711.254927  	98.881119 
712.691805  	98.861712 
714.128684  	98.874488 
715.565563  	98.959892 
717.002441  	99.004637 
718.439320  	98.961758 
719.876199  	98.903341 
721.313077  	98.855402 
722.749956  	98.840345 
724.186834  	98.827547 
725.623713  	98.802957 
727.060592  	98.826017 
728.497470  	98.863540 
729.934349  	98.893886 
731.371228  	98.902641 
732.808106  	98.848884 
734.244985  	98.810163 
735.681864  	98.820869 
737.118742  	98.854634 
738.555621  	98.906027 
739.992499  	98.885744 
741.429378  	98.820303 
742.866257  	98.828191 
744.303135  	98.827266 
745.740014  	98.785541 
747.176893  	98.781467 
748.613771  	98.794519 
750.050650  	98.822829 
751.487529  	98.838631 
752.924407  	98.797036 
754.361286  	98.792954 
755.798165  	98.869530 
757.235043  	98.933284 
758.671922  	98.931592 
760.108800  	98.911757 
761.545679  	98.944109 
762.982558  	98.993400 
764.419436  	98.979633 
765.856315  	98.907810 
767.293194  	98.821522 
768.730072  	98.747703 
770.166951  	98.669735 
771.603830  	98.585227 
773.040708  	98.564823 
774.477587  	98.613437 
775.914465  	98.657907 
777.351344  	98.701064 
778.788223  	98.785933 
780.225101  	98.882449 
781.661980  	98.926571 
783.098859  	98.954161 
784.535737  	99.019872 
785.972616  	99.080014 
787.409495  	99.126110 
788.846373  	99.140354 
790.283252  	99.085994 
791.720131  	99.070309 
793.157009  	99.111855 
794.593888  	99.104833 
796.030766  	99.087000 
797.467645  	99.090314 
798.904524  	99.078940 
800.341402  	99.060854 
801.778281  	99.021466 
803.215160  	98.968086 
804.652038  	98.923567 
806.088917  	98.879448 
807.525796  	98.835100 
808.962674  	98.760131 
810.399553  	98.656312 
811.836431  	98.548431 
813.273310  	98.442242 
814.710189  	98.426183 
816.147067  	98.498078 
817.583946  	98.555820 
819.020825  	98.648369 
820.457703  	98.757765 
821.894582  	98.785341 
823.331461  	98.785087 
824.768339  	98.752324 
826.205218  	98.646721 
827.642097  	98.547959 
829.078975  	98.498761 
830.515854  	98.485994 
831.952732  	98.498083 
833.389611  	98.551568 
834.826490  	98.668656 
836.263368  	98.766034 
837.700247  	98.811304 
839.137126  	98.879472 
840.574004  	98.962947 
842.010883  	99.029125 
843.447762  	99.069192 
844.884640  	99.088945 
846.321519  	99.111663 
847.758397  	99.103533 
849.195276  	99.082989 
850.632155  	99.102139 
852.069033  	99.107645 
853.505912  	99.084630 
854.942791  	99.061155 
856.379669  	99.031884 
857.816548  	99.018280 
859.253427  	99.017276 
860.690305  	99.026239 
862.127184  	99.045770 
863.564063  	99.033643 
865.000941  	99.026463 
866.437820  	99.054331 
867.874698  	99.063449 
869.311577  	99.062419 
870.748456  	99.064997 
872.185334  	99.057975 
873.622213  	99.048506 
875.059092  	99.030532 
876.495970  	99.020982 
877.932849  	99.002712 
879.369728  	98.951546 
880.806606  	98.929934 
882.243485  	98.940911 
883.680363  	98.952268 
885.117242  	98.970706 
886.554121  	98.960063 
887.990999  	98.937381 
889.427878  	98.928517 
890.864757  	98.903360 
892.301635  	98.900776 
893.738514  	98.919044 
895.175393  	98.907360 
896.612271  	98.881709 
898.049150  	98.834649 
899.486029  	98.781827 
900.922907  	98.756516 
902.359786  	98.719192 
903.796664  	98.667901 
905.233543  	98.628657 
906.670422  	98.615724 
908.107300  	98.643211 
909.544179  	98.657183 
910.981058  	98.635827 
912.417936  	98.612162 
913.854815  	98.587745 
915.291694  	98.570706 
916.728572  	98.533110 
918.165451  	98.476863 
919.602329  	98.456251 
921.039208  	98.419430 
922.476087  	98.358790 
923.912965  	98.330734 
925.349844  	98.287203 
926.786723  	98.242077 
928.223601  	98.226208 
929.660480  	98.182533 
931.097359  	98.131711 
932.534237  	98.086967 
933.971116  	98.031428 
935.407995  	97.996214 
936.844873  	97.958575 
938.281752  	97.931434 
939.718630  	97.950799 
941.155509  	97.966478 
942.592388  	97.980097 
944.029266  	97.997614 
945.466145  	97.997978 
946.903024  	98.012701 
948.339902  	98.014429 
949.776781  	97.998425 
951.213660  	98.022172 
952.650538  	98.055936 
954.087417  	98.072139 
955.524295  	98.074625 
956.961174  	98.074165 
958.398053  	98.111253 
959.834931  	98.145252 
961.271810  	98.145614 
962.708689  	98.156887 
964.145567  	98.168211 
965.582446  	98.181579 
967.019325  	98.206508 
968.456203  	98.212410 
969.893082  	98.210835 
971.329961  	98.204765 
972.766839  	98.203281 
974.203718  	98.231639 
975.640596  	98.253096 
977.077475  	98.253190 
978.514354  	98.237615 
979.951232  	98.216612 
981.388111  	98.224059 
982.824990  	98.206406 
984.261868  	98.152305 
985.698747  	98.151990 
987.135626  	98.173712 
988.572504  	98.145817 
990.009383  	98.092935 
991.446261  	98.071833 
992.883140  	98.092066 
994.320019  	98.064200 
995.756897  	97.986709 
997.193776  	97.947963 
998.630655  	97.893251 
1000.067533  	97.795220 
1001.504412  	97.715304 
1002.941291  	97.632005 
1004.378169  	97.529148 
1005.815048  	97.394518 
1007.251926  	97.231969 
1008.688805  	97.110659 
1010.125684  	97.009083 
1011.562562  	96.921505 
1012.999441  	96.899085 
1014.436320  	96.872236 
1015.873198  	96.848800 
1017.310077  	96.891456 
1018.746956  	96.927504 
1020.183834  	96.949112 
1021.620713  	96.980780 
1023.057592  	97.003708 
1024.494470  	97.052318 
1025.931349  	97.109548 
1027.368227  	97.163661 
1028.805106  	97.246981 
1030.241985  	97.303657 
1031.678863  	97.295115 
1033.115742  	97.245241 
1034.552621  	97.189270 
1035.989499  	97.158350 
1037.426378  	97.120640 
1038.863257  	97.088613 
1040.300135  	97.108065 
1041.737014  	97.126513 
1043.173892  	97.141629 
1044.610771  	97.190961 
1046.047650  	97.231937 
1047.484528  	97.251031 
1048.921407  	97.273672 
1050.358286  	97.311037 
1051.795164  	97.332631 
1053.232043  	97.301334 
1054.668922  	97.272591 
1056.105800  	97.277207 
1057.542679  	97.277210 
1058.979558  	97.279328 
1060.416436  	97.285390 
1061.853315  	97.312730 
1063.290193  	97.373333 
1064.727072  	97.405040 
1066.163951  	97.417680 
1067.600829  	97.438900 
1069.037708  	97.435321 
1070.474587  	97.432925 
1071.911465  	97.440930 
1073.348344  	97.440998 
1074.785223  	97.456616 
1076.222101  	97.487550 
1077.658980  	97.547461 
1079.095858  	97.634820 
1080.532737  	97.712844 
1081.969616  	97.792683 
1083.406494  	97.851811 
1084.843373  	97.878211 
1086.280252  	97.915538 
1087.717130  	97.956510 
1089.154009  	98.001329 
1090.590888  	98.037501 
1092.027766  	98.028711 
1093.464645  	98.023107 
1094.901524  	98.024369 
1096.338402  	97.980439 
1097.775281  	97.911195 
1099.212159  	97.837001 
1100.649038  	97.776326 
1102.085917  	97.731123 
1103.522795  	97.647029 
1104.959674  	97.546806 
1106.396553  	97.488784 
1107.833431  	97.438879 
1109.270310  	97.344693 
1110.707189  	97.223874 
1112.144067  	97.149110 
1113.580946  	97.104849 
1115.017824  	97.016057 
1116.454703  	96.931196 
1117.891582  	96.883184 
1119.328460  	96.828173 
1120.765339  	96.774086 
1122.202218  	96.708709 
1123.639096  	96.643898 
1125.075975  	96.604008 
1126.512854  	96.519900 
1127.949732  	96.407872 
1129.386611  	96.322131 
1130.823490  	96.228267 
1132.260368  	96.141495 
1133.697247  	96.051328 
1135.134125  	95.938051 
1136.571004  	95.861333 
1138.007883  	95.800787 
1139.444761  	95.752509 
1140.881640  	95.755031 
1142.318519  	95.747514 
1143.755397  	95.723930 
1145.192276  	95.703385 
1146.629155  	95.669914 
1148.066033  	95.655808 
1149.502912  	95.625542 
1150.939790  	95.558215 
1152.376669  	95.506276 
1153.813548  	95.459385 
1155.250426  	95.436320 
1156.687305  	95.426356 
1158.124184  	95.369863 
1159.561062  	95.325719 
1160.997941  	95.312895 
1162.434820  	95.307017 
1163.871698  	95.334967 
1165.308577  	95.358769 
1166.745456  	95.392916 
1168.182334  	95.459171 
1169.619213  	95.503070 
1171.056091  	95.576196 
1172.492970  	95.685902 
1173.929849  	95.767173 
1175.366727  	95.860143 
1176.803606  	95.960077 
1178.240485  	96.048050 
1179.677363  	96.163228 
1181.114242  	96.283868 
1182.551121  	96.398640 
1183.987999  	96.510981 
1185.424878  	96.612939 
1186.861756  	96.729087 
1188.298635  	96.839042 
1189.735514  	96.928752 
1191.172392  	97.027769 
1192.609271  	97.120159 
1194.046150  	97.191297 
1195.483028  	97.244420 
1196.919907  	97.288758 
1198.356786  	97.347349 
1199.793664  	97.400684 
1201.230543  	97.449403 
1202.667422  	97.520743 
1204.104300  	97.577160 
1205.541179  	97.604387 
1206.978057  	97.630431 
1208.414936  	97.643857 
1209.851815  	97.623590 
1211.288693  	97.561386 
1212.725572  	97.478066 
1214.162451  	97.398405 
1215.599329  	97.296122 
1217.036208  	97.178870 
1218.473087  	97.083216 
1219.909965  	97.001490 
1221.346844  	96.937450 
1222.783722  	96.870836 
1224.220601  	96.783641 
1225.657480  	96.720577 
1227.094358  	96.665875 
1228.531237  	96.590371 
1229.968116  	96.523504 
1231.404994  	96.460653 
1232.841873  	96.411232 
1234.278752  	96.393839 
1235.715630  	96.384890 
1237.152509  	96.387330 
1238.589388  	96.407663 
1240.026266  	96.439451 
1241.463145  	96.476362 
1242.900023  	96.504561 
1244.336902  	96.544415 
1245.773781  	96.601498 
1247.210659  	96.650488 
1248.647538  	96.705189 
1250.084417  	96.776074 
1251.521295  	96.851983 
1252.958174  	96.934267 
1254.395053  	97.034362 
1255.831931  	97.160785 
1257.268810  	97.289223 
1258.705688  	97.404038 
1260.142567  	97.518935 
1261.579446  	97.625736 
1263.016324  	97.717870 
1264.453203  	97.802824 
1265.890082  	97.877339 
1267.326960  	97.933670 
1268.763839  	97.971372 
1270.200718  	98.003110 
1271.637596  	98.028492 
1273.074475  	98.048111 
1274.511353  	98.083594 
1275.948232  	98.117037 
1277.385111  	98.125655 
1278.821989  	98.134527 
1280.258868  	98.144583 
1281.695747  	98.143640 
1283.132625  	98.138230 
1284.569504  	98.112903 
1286.006383  	98.065650 
1287.443261  	98.018538 
1288.880140  	97.974123 
1290.317019  	97.918727 
1291.753897  	97.838080 
1293.190776  	97.753961 
1294.627654  	97.695846 
1296.064533  	97.655917 
1297.501412  	97.662238 
1298.938290  	97.731862 
1300.375169  	97.818108 
1301.812048  	97.902270 
1303.248926  	97.971541 
1304.685805  	98.029127 
1306.122684  	98.081650 
1307.559562  	98.124017 
1308.996441  	98.182509 
1310.433319  	98.251827 
1311.870198  	98.280752 
1313.307077  	98.282998 
1314.743955  	98.302719 
1316.180834  	98.321087 
1317.617713  	98.315195 
1319.054591  	98.308155 
1320.491470  	98.343849 
1321.928349  	98.424358 
1323.365227  	98.518781 
1324.802106  	98.611603 
1326.238985  	98.695746 
1327.675863  	98.760580 
1329.112742  	98.814666 
1330.549620  	98.862192 
1331.986499  	98.913210 
1333.423378  	98.957754 
1334.860256  	98.976719 
1336.297135  	98.980085 
1337.734014  	98.958703 
1339.170892  	98.925710 
1340.607771  	98.939430 
1342.044650  	99.024213 
1343.481528  	99.088402 
1344.918407  	99.109994 
1346.355285  	99.124921 
1347.792164  	99.148523 
1349.229043  	99.128063 
1350.665921  	99.065416 
1352.102800  	98.982280 
1353.539679  	98.917218 
1354.976557  	98.905675 
1356.413436  	98.922925 
1357.850315  	98.942348 
1359.287193  	98.948162 
1360.724072  	98.917922 
1362.160951  	98.830164 
1363.597829  	98.714318 
1365.034708  	98.705710 
1366.471586  	98.782257 
1367.908465  	98.816367 
1369.345344  	98.813316 
1370.782222  	98.856520 
1372.219101  	98.921448 
1373.655980  	98.935692 
1375.092858  	98.903980 
1376.529737  	98.903071 
1377.966616  	98.944513 
1379.403494  	99.004557 
1380.840373  	99.036293 
1382.277251  	99.013869 
1383.714130  	98.979244 
1385.151009  	98.943661 
1386.587887  	98.892377 
1388.024766  	98.826284 
1389.461645  	98.819964 
1390.898523  	98.861219 
1392.335402  	98.957268 
1393.772281  	99.021282 
1395.209159  	99.041472 
1396.646038  	99.099188 
1398.082917  	99.174858 
1399.519795  	99.202700 
1400.956674  	99.218432 
1402.393552  	99.267480 
1403.830431  	99.321107 
1405.267310  	99.309309 
1406.704188  	99.232369 
1408.141067  	99.191997 
1409.577946  	99.171601 
1411.014824  	99.138153 
1412.451703  	99.133731 
1413.888582  	99.140547 
1415.325460  	99.141396 
1416.762339  	99.173561 
1418.199217  	99.230143 
1419.636096  	99.233510 
1421.072975  	99.235969 
1422.509853  	99.239669 
1423.946732  	99.223598 
1425.383611  	99.156968 
1426.820489  	99.161859 
1428.257368  	99.220610 
1429.694247  	99.161801 
1431.131125  	99.016943 
1432.568004  	98.914062 
1434.004883  	98.897182 
1435.441761  	98.966080 
1436.878640  	98.936905 
1438.315518  	98.860011 
1439.752397  	98.869500 
1441.189276  	98.893179 
1442.626154  	98.839401 
1444.063033  	98.790801 
1445.499912  	98.758092 
1446.936790  	98.620125 
1448.373669  	98.343146 
1449.810548  	98.241534 
1451.247426  	98.311940 
1452.684305  	98.351828 
1454.121183  	98.372468 
1455.558062  	98.526508 
1456.994941  	98.744751 
1458.431819  	98.783228 
1459.868698  	98.672139 
1461.305577  	98.643467 
1462.742455  	98.680202 
1464.179334  	98.711451 
1465.616213  	98.682677 
1467.053091  	98.682680 
1468.489970  	98.768393 
1469.926849  	98.889545 
1471.363727  	98.930412 
1472.800606  	98.881974 
1474.237484  	99.026462 
1475.674363  	99.131908 
1477.111242  	99.196720 
1478.548120  	99.244964 
1479.984999  	99.333482 
1481.421878  	99.448445 
1482.858756  	99.469041 
1484.295635  	99.438478 
1485.732514  	99.405535 
1487.169392  	99.363579 
1488.606271  	99.362657 
1490.043149  	99.393781 
1491.480028  	99.459650 
1492.916907  	99.496648 
1494.353785  	99.546380 
1495.790664  	99.567876 
1497.227543  	99.446065 
1498.664421  	99.279603 
1500.101300  	99.102663 
1501.538179  	98.893763 
1502.975057  	98.761736 
1504.411936  	98.888384 
1505.848815  	99.166751 
1507.285693  	98.521807 
1508.722572  	98.001694 
1510.159450  	97.957367 
1511.596329  	98.003179 
1513.033208  	98.119082 
1514.470086  	98.254020 
1515.906965  	98.387185 
1517.343844  	98.375951 
1518.780722  	98.358872 
1520.217601  	98.521485 
1521.654480  	98.571139 
1523.091358  	98.402969 
1524.528237  	98.451533 
1525.965115  	98.632180 
1527.401994  	98.600635 
1528.838873  	98.484707 
1530.275751  	98.459882 
1531.712630  	98.487304 
1533.149509  	98.371552 
1534.586387  	98.107757 
1536.023266  	98.207212 
1537.460145  	98.580286 
1538.897023  	99.124366 
1540.333902  	99.202369 
1541.770780  	99.191353 
1543.207659  	99.252167 
1544.644538  	99.155392 
1546.081416  	99.080563 
1547.518295  	99.119623 
1548.955174  	99.164129 
1550.392052  	99.102467 
1551.828931  	99.098728 
1553.265810  	99.185852 
1554.702688  	99.211217 
1556.139567  	99.295574 
1557.576446  	99.555967 
1559.013324  	99.494822 
1560.450203  	99.543386 
1561.887081  	99.676872 
1563.323960  	99.818456 
1564.760839  	99.855165 
1566.197717  	99.717206 
1567.634596  	99.774196 
1569.071475  	99.892778 
1570.508353  	99.689065 
1571.945232  	99.551671 
1573.382111  	99.632638 
1574.818989  	99.756773 
1576.255868  	99.797079 
1577.692746  	99.754305 
1579.129625  	99.802510 
1580.566504  	99.871396 
1582.003382  	99.848872 
1583.440261  	99.825610 
1584.877140  	99.864087 
1586.314018  	99.896455 
1587.750897  	99.895914 
1589.187776  	99.836721 
1590.624654  	99.822411 
1592.061533  	99.854478 
1593.498412  	99.850781 
1594.935290  	99.819145 
1596.372169  	99.816662 
1597.809047  	99.850821 
1599.245926  	99.886098 
1600.682805  	99.850523 
1602.119683  	99.808121 
1603.556562  	99.779833 
1604.993441  	99.699021 
1606.430319  	99.606763 
1607.867198  	99.581173 
1609.304077  	99.585870 
1610.740955  	99.558699 
1612.177834  	99.459722 
1613.614712  	99.401500 
1615.051591  	99.490679 
1616.488470  	99.601695 
1617.925348  	99.494103 
1619.362227  	99.390090 
1620.799106  	99.415070 
1622.235984  	99.476431 
1623.672863  	99.411006 
1625.109742  	99.304456 
1626.546620  	99.272933 
1627.983499  	99.212312 
1629.420378  	99.083674 
1630.857256  	99.034275 
1632.294135  	99.146892 
1633.731013  	99.369906 
1635.167892  	99.472513 
1636.604771  	99.069521 
1638.041649  	98.942748 
1639.478528  	99.027391 
1640.915407  	99.039507 
1642.352285  	98.947803 
1643.789164  	99.008813 
1645.226043  	99.216942 
1646.662921  	99.237308 
1648.099800  	98.978791 
1649.536678  	98.950421 
1650.973557  	99.175020 
1652.410436  	99.512853 
1653.847314  	99.147724 
1655.284193  	99.311538 
1656.721072  	99.412542 
1658.157950  	99.352294 
1659.594829  	99.177173 
1661.031708  	99.126115 
1662.468586  	99.144105 
1663.905465  	99.071572 
1665.342344  	98.926636 
1666.779222  	98.908313 
1668.216101  	99.008369 
1669.652979  	99.040451 
1671.089858  	98.978327 
1672.526737  	98.916682 
1673.963615  	98.898614 
1675.400494  	98.849453 
1676.837373  	98.777143 
1678.274251  	98.800809 
1679.711130  	98.775955 
1681.148009  	98.627941 
1682.584887  	98.646202 
1684.021766  	98.710236 
1685.458644  	98.353047 
1686.895523  	98.147227 
1688.332402  	98.004674 
1689.769280  	97.827269 
1691.206159  	97.675128 
1692.643038  	97.586080 
1694.079916  	97.715094 
1695.516795  	97.597377 
1696.953674  	96.900363 
1698.390552  	96.996572 
1699.827431  	97.341316 
1701.264310  	96.970694 
1702.701188  	96.751991 
1704.138067  	96.820269 
1705.574945  	96.784597 
1707.011824  	96.371452 
1708.448703  	96.096519 
1709.885581  	96.021924 
1711.322460  	95.900826 
1712.759339  	95.729934 
1714.196217  	95.682534 
1715.633096  	95.786576 
1717.069975  	95.971124 
1718.506853  	96.032219 
1719.943732  	95.937209 
1721.380610  	96.004230 
1722.817489  	96.160492 
1724.254368  	96.180326 
1725.691246  	96.271686 
1727.128125  	96.463775 
1728.565004  	96.545700 
1730.001882  	96.546431 
1731.438761  	96.665870 
1732.875640  	96.942244 
1734.312518  	97.210173 
1735.749397  	97.382508 
1737.186276  	97.582236 
1738.623154  	97.915235 
1740.060033  	98.180043 
1741.496911  	98.323021 
1742.933790  	98.547258 
1744.370669  	98.752760 
1745.807547  	98.888898 
1747.244426  	99.006720 
1748.681305  	99.151390 
1750.118183  	99.377398 
1751.555062  	99.495459 
1752.991941  	99.597831 
1754.428819  	99.806446 
1755.865698  	100.034855 
1757.302576  	100.045605 
1758.739455  	99.993695 
1760.176334  	100.074903 
1761.613212  	100.092918 
1763.050091  	99.879069 
1764.486970  	99.905162 
1765.923848  	100.125030 
1767.360727  	100.153369 
1768.797606  	100.130242 
1770.234484  	100.202309 
1771.671363  	100.311041 
1773.108242  	100.340748 
1774.545120  	100.259557 
1775.981999  	100.246805 
1777.418877  	100.305249 
1778.855756  	100.336447 
1780.292635  	100.347515 
1781.729513  	100.333151 
1783.166392  	100.287872 
1784.603271  	100.272340 
1786.040149  	100.240845 
1787.477028  	100.216081 
1788.913907  	100.273863 
1790.350785  	100.308057 
1791.787664  	100.318935 
1793.224542  	100.353518 
1794.661421  	100.335007 
1796.098300  	100.351422 
1797.535178  	100.395185 
1798.972057  	100.434349 
1800.408936  	100.471513 
1801.845814  	100.452161 
1803.282693  	100.434332 
1804.719572  	100.459847 
1806.156450  	100.460222 
1807.593329  	100.437882 
1809.030207  	100.472044 
1810.467086  	100.495063 
1811.903965  	100.491600 
1813.340843  	100.483363 
1814.777722  	100.518831 
1816.214601  	100.553662 
1817.651479  	100.535381 
1819.088358  	100.516424 
1820.525237  	100.519139 
1821.962115  	100.522552 
1823.398994  	100.581383 
1824.835873  	100.598402 
1826.272751  	100.557934 
1827.709630  	100.585271 
1829.146508  	100.651102 
1830.583387  	100.642181 
1832.020266  	100.591603 
1833.457144  	100.579580 
1834.894023  	100.591831 
1836.330902  	100.542704 
1837.767780  	100.507454 
1839.204659  	100.527960 
1840.641538  	100.503558 
1842.078416  	100.498877 
1843.515295  	100.524721 
1844.952173  	100.496848 
1846.389052  	100.514020 
1847.825931  	100.557974 
1849.262809  	100.590559 
1850.699688  	100.639208 
1852.136567  	100.690117 
1853.573445  	100.765833 
1855.010324  	100.757950 
1856.447203  	100.615208 
1857.884081  	100.490133 
1859.320960  	100.412598 
1860.757839  	100.380177 
1862.194717  	100.431165 
1863.631596  	100.476803 
1865.068474  	100.539185 
1866.505353  	100.610939 
1867.942232  	100.610995 
1869.379110  	100.646957 
1870.815989  	100.662096 
1872.252868  	100.635034 
1873.689746  	100.680496 
1875.126625  	100.672842 
1876.563504  	100.668691 
1878.000382  	100.724315 
1879.437261  	100.651039 
1880.874139  	100.532393 
1882.311018  	100.505513 
1883.747897  	100.530737 
1885.184775  	100.550250 
1886.621654  	100.509920 
1888.058533  	100.550391 
1889.495411  	100.623238 
1890.932290  	100.628921 
1892.369169  	100.665687 
1893.806047  	100.720609 
1895.242926  	100.714474 
1896.679805  	100.702751 
1898.116683  	100.704487 
1899.553562  	100.751734 
1900.990440  	100.791959 
1902.427319  	100.693557 
1903.864198  	100.655395 
1905.301076  	100.713147 
1906.737955  	100.678377 
1908.174834  	100.681671 
1909.611712  	100.696188 
1911.048591  	100.674956 
1912.485470  	100.741163 
1913.922348  	100.776285 
1915.359227  	100.782237 
1916.796105  	100.814769 
1918.232984  	100.809162 
1919.669863  	100.813185 
1921.106741  	100.829437 
1922.543620  	100.780813 
1923.980499  	100.748016 
1925.417377  	100.741097 
1926.854256  	100.851210 
1928.291135  	100.865208 
1929.728013  	100.947238 
1931.164892  	100.971352 
1932.601771  	100.979910 
1934.038649  	100.911229 
1935.475528  	100.869583 
1936.912406  	100.781529 
1938.349285  	100.783993 
1939.786164  	100.877263 
1941.223042  	100.934619 
1942.659921  	100.964052 
1944.096800  	100.963594 
1945.533678  	100.925352 
1946.970557  	101.002868 
1948.407436  	101.075103 
1949.844314  	101.058418 
1951.281193  	101.103859 
1952.718071  	101.093946 
1954.154950  	101.140224 
1955.591829  	101.113242 
1957.028707  	100.927928 
1958.465586  	100.999897 
1959.902465  	101.171545 
1961.339343  	101.231409 
1962.776222  	101.254600 
1964.213101  	101.115778 
1965.649979  	101.155268 
1967.086858  	101.237532 
1968.523737  	101.037838 
1969.960615  	101.059916 
1971.397494  	101.069724 
1972.834372  	101.039465 
1974.271251  	101.202005 
1975.708130  	101.248966 
1977.145008  	101.205010 
1978.581887  	101.067431 
1980.018766  	100.815687 
1981.455644  	100.925212 
1982.892523  	101.096331 
1984.329402  	100.975635 
1985.766280  	100.849388 
1987.203159  	100.799199 
1988.640037  	100.712885 
1990.076916  	100.728581 
1991.513795  	100.755814 
1992.950673  	100.778167 
1994.387552  	100.793112 
1995.824431  	100.874103 
1997.261309  	100.936639 
1998.698188  	100.772406 
2000.135067  	100.739536 
2001.571945  	100.953750 
2003.008824  	101.042117 
2004.445703  	101.067478 
2005.882581  	101.071036 
2007.319460  	101.017270 
2008.756338  	101.057249 
2010.193217  	101.027021 
2011.630096  	101.054458 
2013.066974  	101.174298 
2014.503853  	101.108589 
2015.940732  	101.101313 
2017.377610  	101.090698 
2018.814489  	100.899045 
2020.251368  	100.833639 
2021.688246  	100.871423 
2023.125125  	101.016682 
2024.562003  	101.087447 
2025.998882  	100.815960 
2027.435761  	100.811678 
2028.872639  	101.062529 
2030.309518  	100.964852 
2031.746397  	100.825957 
2033.183275  	100.838119 
2034.620154  	100.880394 
2036.057033  	100.882981 
2037.493911  	100.702789 
2038.930790  	100.588461 
2040.367669  	100.598017 
2041.804547  	100.638318 
2043.241426  	100.738951 
2044.678304  	100.646591 
2046.115183  	100.515492 
2047.552062  	100.645077 
2048.988940  	100.689272 
2050.425819  	100.652813 
2051.862698  	100.749525 
2053.299576  	100.767639 
2054.736455  	100.719389 
2056.173334  	100.688505 
2057.610212  	100.628346 
2059.047091  	100.592300 
2060.483969  	100.565813 
2061.920848  	100.523855 
2063.357727  	100.488865 
2064.794605  	100.509445 
2066.231484  	100.626133 
2067.668363  	100.671841 
2069.105241  	100.641701 
2070.542120  	100.729997 
2071.978999  	100.762317 
2073.415877  	100.637076 
2074.852756  	100.594049 
2076.289635  	100.675645 
2077.726513  	100.752906 
2079.163392  	100.754047 
2080.600270  	100.695736 
2082.037149  	100.688564 
2083.474028  	100.736197 
2084.910906  	100.756581 
2086.347785  	100.707488 
2087.784664  	100.644389 
2089.221542  	100.674619 
2090.658421  	100.698623 
2092.095300  	100.631975 
2093.532178  	100.660009 
2094.969057  	100.780913 
2096.405935  	100.751039 
2097.842814  	100.599688 
2099.279693  	100.581093 
2100.716571  	100.711817 
2102.153450  	100.758651 
2103.590329  	100.720382 
2105.027207  	100.784714 
2106.464086  	100.853180 
2107.900965  	100.803718 
2109.337843  	100.760335 
2110.774722  	100.783024 
2112.211600  	100.810526 
2113.648479  	100.788652 
2115.085358  	100.745119 
2116.522236  	100.764854 
2117.959115  	100.857917 
2119.395994  	100.955868 
2120.832872  	100.970776 
2122.269751  	100.927264 
2123.706630  	100.958502 
2125.143508  	101.017578 
2126.580387  	101.025026 
2128.017266  	101.007908 
2129.454144  	100.963351 
2130.891023  	101.051942 
2132.327901  	101.277319 
2133.764780  	101.338835 
2135.201659  	101.331619 
2136.638537  	101.348422 
2138.075416  	101.216689 
2139.512295  	101.197361 
2140.949173  	101.364803 
2142.386052  	101.506849 
2143.822931  	101.636850 
2145.259809  	101.547821 
2146.696688  	101.320622 
2148.133566  	101.262866 
2149.570445  	101.199716 
2151.007324  	101.194424 
2152.444202  	101.378513 
2153.881081  	101.400853 
2155.317960  	101.274989 
2156.754838  	101.300819 
2158.191717  	101.478764 
2159.628596  	101.544845 
2161.065474  	101.372750 
2162.502353  	101.272237 
2163.939232  	101.224215 
2165.376110  	101.073774 
2166.812989  	100.993643 
2168.249867  	101.113611 
2169.686746  	101.188996 
2171.123625  	100.992471 
2172.560503  	100.834227 
2173.997382  	100.973162 
2175.434261  	101.020618 
2176.871139  	100.910002 
2178.308018  	100.953575 
2179.744897  	100.971669 
2181.181775  	100.855789 
2182.618654  	100.773604 
2184.055532  	100.808965 
2185.492411  	100.938010 
2186.929290  	100.969198 
2188.366168  	100.962979 
2189.803047  	101.068536 
2191.239926  	101.028181 
2192.676804  	100.891537 
2194.113683  	100.828542 
2195.550562  	100.707579 
2196.987440  	100.728777 
2198.424319  	100.913437 
2199.861198  	100.948450 
2201.298076  	100.930680 
2202.734955  	100.887563 
2204.171833  	100.785577 
2205.608712  	100.829916 
2207.045591  	100.899080 
2208.482469  	100.867607 
2209.919348  	100.853523 
2211.356227  	100.786730 
2212.793105  	100.729746 
2214.229984  	100.807898 
2215.666863  	100.875650 
2217.103741  	100.910673 
2218.540620  	100.963556 
2219.977498  	100.950717 
2221.414377  	100.895980 
2222.851256  	100.873612 
2224.288134  	100.868098 
2225.725013  	100.843286 
2227.161892  	100.782613 
2228.598770  	100.735409 
2230.035649  	100.779482 
2231.472528  	100.839581 
2232.909406  	100.828966 
2234.346285  	100.858010 
2235.783164  	100.900118 
2237.220042  	100.811810 
2238.656921  	100.754093 
2240.093799  	100.797563 
2241.530678  	100.779106 
2242.967557  	100.781004 
2244.404435  	100.826905 
2245.841314  	100.770957 
2247.278193  	100.713482 
2248.715071  	100.735945 
2250.151950  	100.772060 
2251.588829  	100.792465 
2253.025707  	100.757293 
2254.462586  	100.743765 
2255.899464  	100.815696 
2257.336343  	100.832677 
2258.773222  	100.781738 
2260.210100  	100.754585 
2261.646979  	100.724713 
2263.083858  	100.732226 
2264.520736  	100.749695 
2265.957615  	100.720434 
2267.394494  	100.706430 
2268.831372  	100.713950 
2270.268251  	100.705162 
2271.705130  	100.688257 
2273.142008  	100.654082 
2274.578887  	100.636967 
2276.015765  	100.628122 
2277.452644  	100.612448 
2278.889523  	100.607011 
2280.326401  	100.614906 
2281.763280  	100.617418 
2283.200159  	100.595333 
2284.637037  	100.556731 
2286.073916  	100.518170 
2287.510795  	100.494714 
2288.947673  	100.476851 
2290.384552  	100.473290 
2291.821430  	100.466160 
2293.258309  	100.469606 
2294.695188  	100.464814 
2296.132066  	100.443679 
2297.568945  	100.424509 
2299.005824  	100.402620 
2300.442702  	100.369361 
2301.879581  	100.345087 
2303.316460  	100.320384 
2304.753338  	100.296777 
2306.190217  	100.280897 
2307.627096  	100.248400 
2309.063974  	100.220884 
2310.500853  	100.193598 
2311.937731  	100.147271 
2313.374610  	100.132382 
2314.811489  	100.159161 
2316.248367  	100.192166 
2317.685246  	100.212949 
2319.122125  	100.192418 
2320.559003  	100.149650 
2321.995882  	100.108834 
2323.432761  	100.041957 
2324.869639  	99.991389 
2326.306518  	100.004887 
2327.743396  	100.011087 
2329.180275  	99.955719 
2330.617154  	99.904017 
2332.054032  	99.897318 
2333.490911  	99.904633 
2334.927790  	99.938055 
2336.364668  	100.026813 
2337.801547  	100.176338 
2339.238426  	100.349850 
2340.675304  	100.456552 
2342.112183  	100.469777 
2343.549062  	100.431301 
2344.985940  	100.326682 
2346.422819  	100.192859 
2347.859697  	100.104671 
2349.296576  	100.067590 
2350.733455  	100.099243 
2352.170333  	100.146932 
2353.607212  	100.143144 
2355.044091  	100.143148 
2356.480969  	100.135252 
2357.917848  	100.058141 
2359.354727  	100.039072 
2360.791605  	100.198453 
2362.228484  	100.383255 
2363.665362  	100.453290 
2365.102241  	100.463983 
2366.539120  	100.456066 
2367.975998  	100.358479 
2369.412877  	100.200924 
2370.849756  	100.132137 
2372.286634  	100.145382 
2373.723513  	100.141968 
2375.160392  	100.145812 
2376.597270  	100.196669 
2378.034149  	100.239464 
2379.471027  	100.234643 
2380.907906  	100.238943 
2382.344785  	100.305938 
2383.781663  	100.388338 
2385.218542  	100.456937 
2386.655421  	100.521577 
2388.092299  	100.545420 
2389.529178  	100.559462 
2390.966057  	100.597408 
2392.402935  	100.626685 
2393.839814  	100.646502 
2395.276693  	100.676374 
2396.713571  	100.700460 
2398.150450  	100.732619 
2399.587328  	100.766435 
2401.024207  	100.757139 
2402.461086  	100.739414 
2403.897964  	100.759399 
2405.334843  	100.780262 
2406.771722  	100.774827 
2408.208600  	100.753169 
2409.645479  	100.726363 
2411.082358  	100.719124 
2412.519236  	100.723562 
2413.956115  	100.707134 
2415.392993  	100.704734 
2416.829872  	100.745991 
2418.266751  	100.785234 
2419.703629  	100.791541 
2421.140508  	100.771413 
2422.577387  	100.752573 
2424.014265  	100.767475 
2425.451144  	100.775214 
2426.888023  	100.747304 
2428.324901  	100.741954 
2429.761780  	100.755926 
2431.198659  	100.741265 
2432.635537  	100.720967 
2434.072416  	100.711451 
2435.509294  	100.699125 
2436.946173  	100.688804 
2438.383052  	100.672028 
2439.819930  	100.639688 
2441.256809  	100.622194 
2442.693688  	100.636908 
2444.130566  	100.654066 
2445.567445  	100.672944 
2447.004324  	100.706666 
2448.441202  	100.714201 
2449.878081  	100.696470 
2451.314959  	100.694447 
2452.751838  	100.672469 
2454.188717  	100.631705 
2455.625595  	100.635668 
2457.062474  	100.668042 
2458.499353  	100.699963 
2459.936231  	100.719559 
2461.373110  	100.692742 
2462.809989  	100.665945 
2464.246867  	100.686578 
2465.683746  	100.688281 
2467.120625  	100.651936 
2468.557503  	100.640031 
2469.994382  	100.652740 
2471.431260  	100.666279 
2472.868139  	100.699945 
2474.305018  	100.724559 
2475.741896  	100.693391 
2477.178775  	100.664365 
2478.615654  	100.674870 
2480.052532  	100.662313 
2481.489411  	100.638893 
2482.926290  	100.654044 
2484.363168  	100.674016 
2485.800047  	100.676633 
2487.236925  	100.664187 
2488.673804  	100.642712 
2490.110683  	100.646940 
2491.547561  	100.669244 
2492.984440  	100.680315 
2494.421319  	100.674932 
2495.858197  	100.650165 
2497.295076  	100.645391 
2498.731955  	100.677049 
2500.168833  	100.692436 
2501.605712  	100.689849 
2503.042591  	100.699081 
2504.479469  	100.706012 
2505.916348  	100.689810 
2507.353226  	100.654736 
2508.790105  	100.644593 
2510.226984  	100.665991 
2511.663862  	100.671688 
2513.100741  	100.678435 
2514.537620  	100.700835 
2515.974498  	100.690301 
2517.411377  	100.667432 
2518.848256  	100.676269 
2520.285134  	100.677809 
2521.722013  	100.652355 
2523.158891  	100.648289 
2524.595770  	100.662220 
2526.032649  	100.642366 
2527.469527  	100.626228 
2528.906406  	100.648512 
2530.343285  	100.629457 
2531.780163  	100.575338 
2533.217042  	100.579677 
2534.653921  	100.612964 
2536.090799  	100.619733 
2537.527678  	100.610630 
2538.964557  	100.587360 
2540.401435  	100.568271 
2541.838314  	100.566742 
2543.275192  	100.571548 
2544.712071  	100.595889 
2546.148950  	100.618222 
2547.585828  	100.598282 
2549.022707  	100.574212 
2550.459586  	100.581404 
2551.896464  	100.587854 
2553.333343  	100.582238 
2554.770222  	100.588111 
2556.207100  	100.594873 
2557.643979  	100.584748 
2559.080857  	100.572712 
2560.517736  	100.564796 
2561.954615  	100.572724 
2563.391493  	100.603454 
2564.828372  	100.601951 
2566.265251  	100.559125 
2567.702129  	100.536053 
2569.139008  	100.525688 
2570.575887  	100.520391 
2572.012765  	100.545861 
2573.449644  	100.554902 
2574.886523  	100.522312 
2576.323401  	100.500738 
2577.760280  	100.506223 
2579.197158  	100.519612 
2580.634037  	100.525927 
2582.070916  	100.515654 
2583.507794  	100.500549 
2584.944673  	100.488584 
2586.381552  	100.479418 
2587.818430  	100.475419 
2589.255309  	100.472961 
2590.692188  	100.473863 
2592.129066  	100.476433 
2593.565945  	100.479448 
2595.002823  	100.494988 
2596.439702  	100.513167 
2597.876581  	100.517279 
2599.313459  	100.507546 
2600.750338  	100.487745 
2602.187217  	100.487545 
2603.624095  	100.508145 
2605.060974  	100.497813 
2606.497853  	100.469872 
2607.934731  	100.467956 
2609.371610  	100.469125 
2610.808489  	100.462017 
2612.245367  	100.462729 
2613.682246  	100.463239 
2615.119124  	100.461827 
2616.556003  	100.465928 
2617.992882  	100.480095 
2619.429760  	100.495204 
2620.866639  	100.482024 
2622.303518  	100.457327 
2623.740396  	100.463112 
2625.177275  	100.480205 
2626.614154  	100.479246 
2628.051032  	100.469029 
2629.487911  	100.462553 
2630.924789  	100.462811 
2632.361668  	100.456386 
2633.798547  	100.436899 
2635.235425  	100.424328 
2636.672304  	100.431715 
2638.109183  	100.452383 
2639.546061  	100.466762 
2640.982940  	100.468649 
2642.419819  	100.470360 
2643.856697  	100.460934 
2645.293576  	100.448708 
2646.730454  	100.460947 
2648.167333  	100.464035 
2649.604212  	100.453818 
2651.041090  	100.476788 
2652.477969  	100.503532 
2653.914848  	100.510757 
2655.351726  	100.528988 
2656.788605  	100.538041 
2658.225484  	100.524993 
2659.662362  	100.518438 
2661.099241  	100.520892 
2662.536120  	100.529369 
2663.972998  	100.534297 
2665.409877  	100.533117 
2666.846755  	100.553806 
2668.283634  	100.577256 
2669.720513  	100.573080 
2671.157391  	100.572084 
2672.594270  	100.582780 
2674.031149  	100.592148 
2675.468027  	100.611212 
2676.904906  	100.624092 
2678.341785  	100.617410 
2679.778663  	100.612099 
2681.215542  	100.606960 
2682.652420  	100.597192 
2684.089299  	100.602974 
2685.526178  	100.618093 
2686.963056  	100.614306 
2688.399935  	100.601338 
2689.836814  	100.599097 
2691.273692  	100.592210 
2692.710571  	100.579190 
2694.147450  	100.579846 
2695.584328  	100.586132 
2697.021207  	100.588476 
2698.458086  	100.590535 
2699.894964  	100.592324 
2701.331843  	100.600431 
2702.768721  	100.605842 
2704.205600  	100.596338 
2705.642479  	100.590961 
2707.079357  	100.593513 
2708.516236  	100.589713 
2709.953115  	100.586170 
2711.389993  	100.587443 
2712.826872  	100.591088 
2714.263751  	100.597022 
2715.700629  	100.598512 
2717.137508  	100.594315 
2718.574386  	100.594166 
2720.011265  	100.604920 
2721.448144  	100.613654 
2722.885022  	100.604084 
2724.321901  	100.593653 
2725.758780  	100.600772 
2727.195658  	100.609556 
2728.632537  	100.606749 
2730.069416  	100.602752 
2731.506294  	100.608701 
2732.943173  	100.614412 
2734.380052  	100.611847 
2735.816930  	100.613170 
2737.253809  	100.614541 
2738.690687  	100.616944 
2740.127566  	100.629734 
2741.564445  	100.620932 
2743.001323  	100.598029 
2744.438202  	100.612136 
2745.875081  	100.633119 
2747.311959  	100.623858 
2748.748838  	100.609247 
2750.185717  	100.600780 
2751.622595  	100.606698 
2753.059474  	100.625485 
2754.496352  	100.630286 
2755.933231  	100.623258 
2757.370110  	100.617115 
2758.806988  	100.619375 
2760.243867  	100.632011 
2761.680746  	100.630460 
2763.117624  	100.621977 
2764.554503  	100.629403 
2765.991382  	100.631454 
2767.428260  	100.626609 
2768.865139  	100.630032 
2770.302018  	100.633225 
2771.738896  	100.636681 
2773.175775  	100.633411 
2774.612653  	100.622129 
2776.049532  	100.630200 
2777.486411  	100.650052 
2778.923289  	100.653523 
2780.360168  	100.649898 
2781.797047  	100.652701 
2783.233925  	100.653201 
2784.670804  	100.644057 
2786.107683  	100.635116 
2787.544561  	100.634522 
2788.981440  	100.632918 
2790.418318  	100.626726 
2791.855197  	100.627069 
2793.292076  	100.632720 
2794.728954  	100.626230 
2796.165833  	100.617226 
2797.602712  	100.628105 
2799.039590  	100.629094 
2800.476469  	100.607941 
2801.913348  	100.608852 
2803.350226  	100.617451 
2804.787105  	100.607199 
2806.223984  	100.612477 
2807.660862  	100.628081 
2809.097741  	100.629430 
2810.534619  	100.624325 
2811.971498  	100.609918 
2813.408377  	100.596110 
2814.845255  	100.587879 
2816.282134  	100.577084 
2817.719013  	100.578658 
2819.155891  	100.577399 
2820.592770  	100.568065 
2822.029649  	100.577384 
2823.466527  	100.572834 
2824.903406  	100.552438 
2826.340284  	100.562919 
2827.777163  	100.570508 
2829.214042  	100.549022 
2830.650920  	100.533810 
2832.087799  	100.529818 
2833.524678  	100.520853 
2834.961556  	100.501140 
2836.398435  	100.484932 
2837.835314  	100.471423 
2839.272192  	100.427426 
2840.709071  	100.376701 
2842.145950  	100.349476 
2843.582828  	100.310370 
2845.019707  	100.258339 
2846.456585  	100.216195 
2847.893464  	100.183473 
2849.330343  	100.161651 
2850.767221  	100.123787 
2852.204100  	100.065853 
2853.640979  	100.023961 
2855.077857  	99.984695 
2856.514736  	99.940727 
2857.951615  	99.914290 
2859.388493  	99.888082 
2860.825372  	99.858205 
2862.262250  	99.844402 
2863.699129  	99.840679 
2865.136008  	99.842367 
2866.572886  	99.843973 
2868.009765  	99.839476 
2869.446644  	99.840897 
2870.883522  	99.847217 
2872.320401  	99.857945 
2873.757280  	99.887778 
2875.194158  	99.927599 
2876.631037  	99.954202 
2878.067916  	99.957726 
2879.504794  	99.952587 
2880.941673  	99.967619 
2882.378551  	99.994223 
2883.815430  	99.999226 
2885.252309  	99.987931 
2886.689187  	99.984275 
2888.126066  	99.982717 
2889.562945  	99.963561 
2890.999823  	99.934850 
2892.436702  	99.919782 
2893.873581  	99.911184 
2895.310459  	99.894210 
2896.747338  	99.882710 
2898.184216  	99.878222 
2899.621095  	99.859731 
2901.057974  	99.836576 
2902.494852  	99.826907 
2903.931731  	99.809401 
2905.368610  	99.775173 
2906.805488  	99.751079 
2908.242367  	99.731244 
2909.679246  	99.699105 
2911.116124  	99.676564 
2912.553003  	99.655166 
2913.989882  	99.606291 
2915.426760  	99.562103 
2916.863639  	99.541146 
2918.300517  	99.508343 
2919.737396  	99.467055 
2921.174275  	99.435871 
2922.611153  	99.399530 
2924.048032  	99.358273 
2925.484911  	99.325167 
2926.921789  	99.301157 
2928.358668  	99.280902 
2929.795547  	99.258221 
2931.232425  	99.245803 
2932.669304  	99.240734 
2934.106182  	99.219582 
2935.543061  	99.199423 
2936.979940  	99.190798 
2938.416818  	99.176554 
2939.853697  	99.163203 
2941.290576  	99.145021 
2942.727454  	99.126739 
2944.164333  	99.141594 
2945.601212  	99.160066 
2947.038090  	99.148554 
2948.474969  	99.146487 
2949.911847  	99.168719 
2951.348726  	99.189640 
2952.785605  	99.218412 
2954.222483  	99.272782 
2955.659362  	99.332640 
2957.096241  	99.383869 
2958.533119  	99.434591 
2959.969998  	99.470606 
2961.406877  	99.503088 
2962.843755  	99.566355 
2964.280634  	99.627239 
2965.717513  	99.673375 
2967.154391  	99.745355 
2968.591270  	99.810202 
2970.028148  	99.845140 
2971.465027  	99.894272 
2972.901906  	99.944960 
2974.338784  	99.979735 
2975.775663  	100.032575 
2977.212542  	100.096975 
2978.649420  	100.139800 
2980.086299  	100.156347 
2981.523178  	100.167698 
2982.960056  	100.204508 
2984.396935  	100.260772 
2985.833813  	100.306635 
2987.270692  	100.343389 
2988.707571  	100.384811 
2990.144449  	100.418154 
2991.581328  	100.425830 
2993.018207  	100.433912 
2994.455085  	100.470528 
2995.891964  	100.508273 
2997.328843  	100.538346 
2998.765721  	100.568473 
3000.202600  	100.569031 
3001.639479  	100.564291 
3003.076357  	100.588226 
3004.513236  	100.594414 
3005.950114  	100.591776 
3007.386993  	100.623944 
3008.823872  	100.653680 
3010.260750  	100.666435 
3011.697629  	100.681198 
3013.134508  	100.690239 
3014.571386  	100.703757 
3016.008265  	100.716986 
3017.445144  	100.713144 
3018.882022  	100.719956 
3020.318901  	100.741065 
3021.755779  	100.737658 
3023.192658  	100.709937 
3024.629537  	100.700808 
3026.066415  	100.719271 
3027.503294  	100.724418 
3028.940173  	100.715387 
3030.377051  	100.722209 
3031.813930  	100.726471 
3033.250809  	100.720940 
3034.687687  	100.729120 
3036.124566  	100.739695 
3037.561445  	100.737720 
3038.998323  	100.728850 
3040.435202  	100.722222 
3041.872080  	100.720331 
3043.308959  	100.707820 
3044.745838  	100.693839 
3046.182716  	100.704250 
3047.619595  	100.722599 
3049.056474  	100.723240 
3050.493352  	100.710166 
3051.930231  	100.703742 
3053.367110  	100.711797 
3054.803988  	100.716408 
3056.240867  	100.712186 
3057.677745  	100.701660 
3059.114624  	100.683679 
3060.551503  	100.683749 
3061.988381  	100.702134 
3063.425260  	100.713285 
3064.862139  	100.725470 
3066.299017  	100.727668 
3067.735896  	100.707075 
3069.172775  	100.699081 
3070.609653  	100.707738 
3072.046532  	100.711290 
3073.483411  	100.710781 
3074.920289  	100.707121 
3076.357168  	100.709088 
3077.794046  	100.717487 
3079.230925  	100.716029 
3080.667804  	100.714521 
3082.104682  	100.730406 
3083.541561  	100.750766 
3084.978440  	100.747821 
3086.415318  	100.729891 
3087.852197  	100.735764 
3089.289076  	100.745865 
3090.725954  	100.728745 
3092.162833  	100.719718 
3093.599711  	100.729806 
3095.036590  	100.736023 
3096.473469  	100.734453 
3097.910347  	100.722333 
3099.347226  	100.728799 
3100.784105  	100.757133 
3102.220983  	100.752013 
3103.657862  	100.743935 
3105.094741  	100.771073 
3106.531619  	100.762956 
3107.968498  	100.718905 
3109.405377  	100.709010 
3110.842255  	100.715946 
3112.279134  	100.712193 
3113.716012  	100.713311 
3115.152891  	100.713937 
3116.589770  	100.711379 
3118.026648  	100.714270 
3119.463527  	100.717955 
3120.900406  	100.724964 
3122.337284  	100.732095 
3123.774163  	100.725401 
3125.211042  	100.715139 
3126.647920  	100.713132 
3128.084799  	100.715938 
3129.521677  	100.729698 
3130.958556  	100.741129 
3132.395435  	100.721943 
3133.832313  	100.693687 
3135.269192  	100.695370 
3136.706071  	100.717001 
3138.142949  	100.727131 
3139.579828  	100.718416 
3141.016707  	100.713300 
3142.453585  	100.720915 
3143.890464  	100.728168 
3145.327343  	100.735936 
3146.764221  	100.726430 
3148.201100  	100.692219 
3149.637978  	100.692428 
3151.074857  	100.718535 
3152.511736  	100.697381 
3153.948614  	100.665455 
3155.385493  	100.669080 
3156.822372  	100.672837 
3158.259250  	100.679345 
3159.696129  	100.693723 
3161.133008  	100.688018 
3162.569886  	100.677271 
3164.006765  	100.668716 
3165.443643  	100.662488 
3166.880522  	100.685642 
3168.317401  	100.703190 
3169.754279  	100.676083 
3171.191158  	100.647096 
3172.628037  	100.640646 
3174.064915  	100.650310 
3175.501794  	100.672996 
3176.938673  	100.673272 
3178.375551  	100.650884 
3179.812430  	100.651701 
3181.249309  	100.665264 
3182.686187  	100.660176 
3184.123066  	100.644874 
3185.559944  	100.633846 
3186.996823  	100.629026 
3188.433702  	100.620961 
3189.870580  	100.611736 
3191.307459  	100.625279 
3192.744338  	100.651800 
3194.181216  	100.646383 
3195.618095  	100.611397 
3197.054974  	100.598507 
3198.491852  	100.607639 
3199.928731  	100.594524 
3201.365609  	100.584975 
3202.802488  	100.610799 
3204.239367  	100.617285 
3205.676245  	100.592379 
3207.113124  	100.589754 
3208.550003  	100.588969 
3209.986881  	100.557368 
3211.423760  	100.544061 
3212.860639  	100.566230 
3214.297517  	100.574212 
3215.734396  	100.572199 
3217.171274  	100.596603 
3218.608153  	100.605854 
3220.045032  	100.573966 
3221.481910  	100.560818 
3222.918789  	100.567500 
3224.355668  	100.550711 
3225.792546  	100.539272 
3227.229425  	100.546223 
3228.666304  	100.540334 
3230.103182  	100.531350 
3231.540061  	100.532579 
3232.976940  	100.522504 
3234.413818  	100.491110 
3235.850697  	100.464321 
3237.287575  	100.469038 
3238.724454  	100.490601 
3240.161333  	100.505368 
3241.598211  	100.511886 
3243.035090  	100.509979 
3244.471969  	100.496490 
3245.908847  	100.475301 
3247.345726  	100.469774 
3248.782605  	100.487076 
3250.219483  	100.493775 
3251.656362  	100.483416 
3253.093240  	100.470158 
3254.530119  	100.455101 
3255.966998  	100.458917 
3257.403876  	100.463920 
3258.840755  	100.438624 
3260.277634  	100.419009 
3261.714512  	100.412796 
3263.151391  	100.410748 
3264.588270  	100.431003 
3266.025148  	100.430003 
3267.462027  	100.404010 
3268.898906  	100.419812 
3270.335784  	100.438533 
3271.772663  	100.404192 
3273.209541  	100.373041 
3274.646420  	100.390376 
3276.083299  	100.417596 
3277.520177  	100.422620 
3278.957056  	100.432823 
3280.393935  	100.440369 
3281.830813  	100.408287 
3283.267692  	100.384107 
3284.704571  	100.398281 
3286.141449  	100.408637 
3287.578328  	100.412857 
3289.015206  	100.402781 
3290.452085  	100.365502 
3291.888964  	100.345596 
3293.325842  	100.359080 
3294.762721  	100.386486 
3296.199600  	100.405599 
3297.636478  	100.401762 
3299.073357  	100.397511 
3300.510236  	100.385374 
3301.947114  	100.351853 
3303.383993  	100.332292 
3304.820872  	100.328142 
3306.257750  	100.347164 
3307.694629  	100.380117 
3309.131507  	100.354234 
3310.568386  	100.321312 
3312.005265  	100.349086 
3313.442143  	100.350633 
3314.879022  	100.330945 
3316.315901  	100.351357 
3317.752779  	100.355889 
3319.189658  	100.348845 
3320.626537  	100.361571 
3322.063415  	100.335865 
3323.500294  	100.284922 
3324.937172  	100.269430 
3326.374051  	100.266205 
3327.810930  	100.253802 
3329.247808  	100.259513 
3330.684687  	100.283581 
3332.121566  	100.297170 
3333.558444  	100.294044 
3334.995323  	100.285254 
3336.432202  	100.269368 
3337.869080  	100.254243 
3339.305959  	100.259869 
3340.742838  	100.272586 
3342.179716  	100.268741 
3343.616595  	100.272322 
3345.053473  	100.298093 
3346.490352  	100.302012 
3347.927231  	100.276229 
3349.364109  	100.263591 
3350.800988  	100.265327 
3352.237867  	100.264818 
3353.674745  	100.251127 
3355.111624  	100.210943 
3356.548503  	100.191393 
3357.985381  	100.229566 
3359.422260  	100.265887 
3360.859138  	100.273800 
3362.296017  	100.283734 
3363.732896  	100.276073 
3365.169774  	100.241291 
3366.606653  	100.228186 
3368.043532  	100.234420 
3369.480410  	100.214327 
3370.917289  	100.203764 
3372.354168  	100.243325 
3373.791046  	100.267308 
3375.227925  	100.251738 
3376.664804  	100.260335 
3378.101682  	100.272110 
3379.538561  	100.250001 
3380.975439  	100.255269 
3382.412318  	100.284633 
3383.849197  	100.277326 
3385.286075  	100.269346 
3386.722954  	100.280165 
3388.159833  	100.285655 
3389.596711  	100.324902 
3391.033590  	100.354054 
3392.470469  	100.300657 
3393.907347  	100.278987 
3395.344226  	100.326729 
3396.781104  	100.320217 
3398.217983  	100.309266 
3399.654862  	100.368059 
3401.091740  	100.408014 
3402.528619  	100.412388 
3403.965498  	100.417007 
3405.402376  	100.412133 
3406.839255  	100.426700 
3408.276134  	100.458913 
3409.713012  	100.449908 
3411.149891  	100.410733 
3412.586770  	100.402315 
3414.023648  	100.413881 
3415.460527  	100.395694 
3416.897405  	100.396251 
3418.334284  	100.455504 
3419.771163  	100.479686 
3421.208041  	100.439067 
3422.644920  	100.409330 
3424.081799  	100.426385 
3425.518677  	100.502213 
3426.955556  	100.564587 
3428.392435  	100.544531 
3429.829313  	100.529921 
3431.266192  	100.538930 
3432.703070  	100.514927 
3434.139949  	100.512358 
3435.576828  	100.525158 
3437.013706  	100.495843 
3438.450585  	100.469692 
3439.887464  	100.477689 
3441.324342  	100.492025 
3442.761221  	100.502959 
3444.198100  	100.540641 
3445.634978  	100.601179 
3447.071857  	100.600781 
3448.508736  	100.546682 
3449.945614  	100.564594 
3451.382493  	100.634034 
3452.819371  	100.659213 
3454.256250  	100.622057 
3455.693129  	100.577771 
3457.130007  	100.575480 
3458.566886  	100.585212 
3460.003765  	100.565411 
3461.440643  	100.535207 
3462.877522  	100.535659 
3464.314401  	100.590071 
3465.751279  	100.650348 
3467.188158  	100.683828 
3468.625036  	100.713233 
3470.061915  	100.717733 
3471.498794  	100.712874 
3472.935672  	100.723663 
3474.372551  	100.681681 
3475.809430  	100.622481 
3477.246308  	100.635031 
3478.683187  	100.661225 
3480.120066  	100.669155 
3481.556944  	100.667183 
3482.993823  	100.664937 
3484.430701  	100.717569 
3485.867580  	100.775354 
3487.304459  	100.783792 
3488.741337  	100.798769 
3490.178216  	100.819581 
3491.615095  	100.809233 
3493.051973  	100.767241 
3494.488852  	100.697167 
3495.925731  	100.665610 
3497.362609  	100.694499 
3498.799488  	100.698669 
3500.236367  	100.669350 
3501.673245  	100.648563 
3503.110124  	100.624008 
3504.547002  	100.627759 
3505.983881  	100.742797 
3507.420760  	100.886537 
3508.857638  	100.901576 
3510.294517  	100.836417 
3511.731396  	100.838600 
3513.168274  	100.840183 
3514.605153  	100.804672 
3516.042032  	100.790666 
3517.478910  	100.757068 
3518.915789  	100.711777 
3520.352667  	100.728365 
3521.789546  	100.743240 
3523.226425  	100.686727 
3524.663303  	100.653518 
3526.100182  	100.725373 
3527.537061  	100.822714 
3528.973939  	100.896516 
3530.410818  	100.953223 
3531.847697  	100.977794 
3533.284575  	100.991905 
3534.721454  	100.980490 
3536.158333  	100.866796 
3537.595211  	100.759142 
3539.032090  	100.789445 
3540.468968  	100.836282 
3541.905847  	100.832946 
3543.342726  	100.810771 
3544.779604  	100.805830 
3546.216483  	100.832241 
3547.653362  	100.893054 
3549.090240  	100.983414 
3550.527119  	101.072218 
3551.963998  	101.101319 
3553.400876  	101.030599 
3554.837755  	100.968725 
3556.274633  	100.937355 
3557.711512  	100.874575 
3559.148391  	100.753373 
3560.585269  	100.715973 
3562.022148  	100.762853 
3563.459027  	100.779917 
3564.895905  	100.759791 
3566.332784  	100.779490 
3567.769663  	100.851108 
3569.206541  	100.994945 
3570.643420  	101.127954 
3572.080299  	101.223715 
3573.517177  	101.267338 
3574.954056  	101.275681 
3576.390934  	101.245441 
3577.827813  	101.113555 
3579.264692  	100.884897 
3580.701570  	100.721139 
3582.138449  	100.684058 
3583.575328  	100.703093 
3585.012206  	100.785968 
3586.449085  	100.873587 
3587.885964  	100.882329 
3589.322842  	100.934375 
3590.759721  	101.029572 
3592.196599  	101.175160 
3593.633478  	101.304724 
3595.070357  	101.252801 
3596.507235  	101.200618 
3597.944114  	101.265543 
3599.380993  	101.254286 
3600.817871  	101.106843 
3602.254750  	100.913877 
3603.691629  	100.824734 
3605.128507  	100.885750 
3606.565386  	100.964689 
3608.002265  	100.951274 
3609.439143  	100.946076 
3610.876022  	101.072511 
3612.312900  	101.277412 
3613.749779  	101.370462 
3615.186658  	101.255418 
3616.623536  	101.268340 
3618.060415  	101.403466 
3619.497294  	101.236056 
3620.934172  	100.835854 
3622.371051  	100.759908 
3623.807930  	100.815665 
3625.244808  	100.737907 
3626.681687  	100.776021 
3628.118565  	101.196844 
3629.555444  	101.559677 
3630.992323  	101.360293 
3632.429201  	101.317495 
3633.866080  	101.419800 
3635.302959  	101.395979 
3636.739837  	101.382870 
3638.176716  	101.420027 
3639.613595  	101.274494 
3641.050473  	100.968028 
3642.487352  	100.697098 
3643.924231  	100.622494 
3645.361109  	100.666139 
3646.797988  	100.582799 
3648.234866  	100.457628 
3649.671745  	100.925247 
3651.108624  	101.526307 
3652.545502  	101.489363 
3653.982381  	101.528087 
3655.419260  	102.030713 
3656.856138  	102.316723 
3658.293017  	101.901368 
3659.729896  	101.662307 
3661.166774  	101.464863 
3662.603653  	101.108813 
3664.040531  	100.819534 
3665.477410  	100.627040 
3666.914289  	100.595911 
3668.351167  	100.784563 
3669.788046  	100.914901 
3671.224925  	100.902753 
3672.661803  	101.295331 
3674.098682  	102.048563 
3675.535561  	102.937423 
3676.972439  	102.168027 
3678.409318  	101.577905 
3679.846197  	101.592222 
3681.283075  	101.394658 
3682.719954  	101.092188 
3684.156832  	101.026196 
3685.593711  	101.053767 
3687.030590  	101.028241 
3688.467468  	100.873089 
3689.904347  	100.691969 
3691.341226  	100.772446 
3692.778104  	100.963874 
3694.214983  	101.156853 
3695.651862  	101.382698 
3697.088740  	101.576343 
3698.525619  	101.592547 
3699.962497  	101.541510 
3701.399376  	101.309021 
3702.836255  	100.782459 
3704.273133  	100.566840 
3705.710012  	100.762751 
3707.146891  	101.068498 
3708.583769  	101.301983 
3710.020648  	101.489831 
3711.457527  	101.669902 
3712.894405  	101.569477 
3714.331284  	101.290129 
3715.768163  	101.281160 
3717.205041  	101.422343 
3718.641920  	101.492271 
3720.078798  	101.632920 
3721.515677  	101.785402 
3722.952556  	101.557009 
3724.389434  	101.168269 
3725.826313  	100.924313 
3727.263192  	100.742322 
3728.700070  	100.922202 
3730.136949  	101.393782 
3731.573828  	101.975892 
3733.010706  	102.238632 
3734.447585  	101.976779 
3735.884463  	101.713877 
3737.321342  	101.466435 
3738.758221  	101.228350 
3740.195099  	101.124946 
3741.631978  	101.220623 
3743.068857  	101.540057 
3744.505735  	101.811792 
3745.942614  	101.127156 
3747.379493  	100.803758 
3748.816371  	100.893334 
3750.253250  	100.898018 
3751.690129  	100.960098 
3753.127007  	101.369249 
3754.563886  	101.539449 
3756.000764  	101.446197 
3757.437643  	101.323968 
3758.874522  	101.202795 
3760.311400  	101.094871 
3761.748279  	100.923762 
3763.185158  	100.911390 
3764.622036  	101.043858 
3766.058915  	100.993414 
3767.495794  	100.951886 
3768.932672  	101.164152 
3770.369551  	101.231758 
3771.806429  	101.010741 
3773.243308  	100.997396 
3774.680187  	101.146528 
3776.117065  	101.227320 
3777.553944  	101.317211 
3778.990823  	101.387228 
3780.427701  	101.350346 
3781.864580  	101.310091 
3783.301459  	101.394051 
3784.738337  	101.473675 
3786.175216  	101.461126 
3787.612094  	101.478076 
3789.048973  	101.541275 
3790.485852  	101.534550 
3791.922730  	101.328252 
3793.359609  	101.141945 
3794.796488  	101.210633 
3796.233366  	101.273674 
3797.670245  	100.984409 
3799.107124  	100.984975 
3800.544002  	101.580946 
3801.980881  	102.144722 
3803.417760  	101.707176 
3804.854638  	101.641977 
3806.291517  	102.058814 
3807.728395  	102.000796 
3809.165274  	101.437337 
3810.602153  	101.330042 
3812.039031  	101.282274 
3813.475910  	101.104960 
3814.912789  	101.114973 
3816.349667  	101.110146 
3817.786546  	100.985764 
3819.223425  	101.174033 
3820.660303  	101.563214 
3822.097182  	101.497923 
3823.534060  	101.394455 
3824.970939  	101.723991 
3826.407818  	101.959387 
3827.844696  	101.553950 
3829.281575  	101.174923 
3830.718454  	101.150767 
3832.155332  	101.141674 
3833.592211  	101.029572 
3835.029090  	101.036136 
3836.465968  	101.341708 
3837.902847  	101.674224 
3839.339726  	101.604818 
3840.776604  	101.575443 
3842.213483  	101.678796 
3843.650361  	101.480871 
3845.087240  	101.184036 
3846.524119  	101.177250 
3847.960997  	101.286847 
3849.397876  	101.353317 
3850.834755  	101.351868 
3852.271633  	101.387099 
3853.708512  	101.268811 
3855.145391  	101.076441 
3856.582269  	101.088553 
3858.019148  	101.199047 
3859.456026  	101.297542 
3860.892905  	101.467990 
3862.329784  	101.748652 
3863.766662  	101.804508 
3865.203541  	101.408351 
3866.640420  	100.937976 
3868.077298  	100.942634 
3869.514177  	101.020195 
3870.951056  	100.854117 
3872.387934  	101.102090 
3873.824813  	101.578539 
3875.261692  	101.585319 
3876.698570  	101.138409 
3878.135449  	101.211047 
3879.572327  	101.617830 
3881.009206  	101.442952 
3882.446085  	100.937372 
3883.882963  	101.159389 
3885.319842  	101.688181 
3886.756721  	101.642869 
3888.193599  	101.360798 
3889.630478  	101.516234 
3891.067357  	101.708071 
3892.504235  	101.286630 
3893.941114  	100.901426 
3895.377992  	101.016217 
3896.814871  	101.179614 
3898.251750  	101.081898 
3899.688628  	100.978308 
3901.125507  	101.187391 
3902.562386  	101.496028 
3903.999264  	101.634890 
3905.436143  	101.464445 
3906.873022  	101.342924 
3908.309900  	101.456287 
3909.746779  	101.537325 
3911.183658  	101.482235 
3912.620536  	101.419893 
3914.057415  	101.369539 
3915.494293  	101.301361 
3916.931172  	101.179646 
3918.368051  	101.107395 
3919.804929  	101.163121 
3921.241808  	101.212557 
3922.678687  	101.260984 
3924.115565  	101.352449 
3925.552444  	101.424562 
3926.989323  	101.459400 
3928.426201  	101.484334 
3929.863080  	101.452093 
3931.299958  	101.380255 
3932.736837  	101.315090 
3934.173716  	101.291761 
3935.610594  	101.340166 
3937.047473  	101.351870 
3938.484352  	101.266320 
3939.921230  	101.234888 
3941.358109  	101.296171 
3942.794988  	101.293843 
3944.231866  	101.234313 
3945.668745  	101.239430 
3947.105624  	101.291930 
3948.542502  	101.291672 
3949.979381  	101.282557 
3951.416259  	101.343569 
3952.853138  	101.408953 
3954.290017  	101.406623 
3955.726895  	101.381331 
3957.163774  	101.379223 
3958.600653  	101.397085 
3960.037531  	101.351473 
3961.474410  	101.257014 
3962.911289  	101.203072 
3964.348167  	101.238875 
3965.785046  	101.339879 
3967.221924  	101.399345 
3968.658803  	101.387520 
3970.095682  	101.392857 
3971.532560  	101.421732 
3972.969439  	101.424402 
3974.406318  	101.382466 
3975.843196  	101.309711 
3977.280075  	101.298517 
3978.716954  	101.368047 
3980.153832  	101.407631 
3981.590711  	101.397179 
3983.027590  	101.407126 
3984.464468  	101.423097 
3985.901347  	101.401498 
3987.338225  	101.382351 
3988.775104  	101.390378 
3990.211983  	101.382536 
3991.648861  	101.370499 
3993.085740  	101.387670 
3994.522619  	101.406366 
3995.959497  	101.416098 
3997.396376  	101.417771 
3998.833255  	101.421472 
4000.270133  	101.454624 