x               y
399.452262  	96.733748 
400.889141  	95.710499 
402.326019  	96.686251 
403.762898  	97.143869 
405.199776  	97.746355 
406.636655  	95.889540 
408.073534  	95.161073 
409.510412  	96.736018 
410.947291  	96.233213 
412.384170  	96.521717 
413.821048  	97.042412 
415.257927  	96.478874 
416.694806  	97.936425 
418.131684  	97.437494 
419.568563  	94.386627 
421.005441  	96.512918 
422.442320  	95.991095 
423.879199  	95.259032 
425.316077  	96.478522 
426.752956  	95.850239 
428.189835  	95.369700 
429.626713  	95.759234 
431.063592  	96.120235 
432.500471  	96.494698 
433.937349  	95.459519 
435.374228  	95.366812 
436.811106  	96.566199 
438.247985  	96.236606 
439.684864  	96.800312 
441.121742  	97.086976 
442.558621  	95.904188 
443.995500  	96.459190 
445.432378  	96.489769 
446.869257  	95.944076 
448.306136  	96.575665 
449.743014  	96.449608 
451.179893  	96.672604 
452.616772  	96.934084 
454.053650  	95.983545 
455.490529  	95.980624 
456.927407  	95.706148 
458.364286  	95.129001 
459.801165  	95.618656 
461.238043  	95.034524 
462.674922  	94.746084 
464.111801  	95.213291 
465.548679  	94.858961 
466.985558  	94.890512 
468.422437  	94.987696 
469.859315  	94.953510 
471.296194  	95.616151 
472.733072  	95.962159 
474.169951  	96.192161 
475.606830  	96.033851 
477.043708  	95.370670 
478.480587  	95.921742 
479.917466  	96.264478 
481.354344  	95.774338 
482.791223  	96.091774 
484.228102  	96.448174 
485.664980  	96.566943 
487.101859  	96.723154 
488.538738  	96.633050 
489.975616  	96.877108 
491.412495  	96.944790 
492.849373  	96.989706 
494.286252  	97.234720 
495.723131  	96.714390 
497.160009  	96.594849 
498.596888  	96.984485 
500.033767  	96.580457 
501.470645  	96.389128 
502.907524  	96.405144 
504.344403  	96.230768 
505.781281  	96.423874 
507.218160  	96.309029 
508.655038  	96.372843 
510.091917  	96.677605 
511.528796  	96.341597 
512.965674  	96.404478 
514.402553  	96.462614 
515.839432  	95.801761 
517.276310  	95.674268 
518.713189  	95.669174 
520.150068  	95.510409 
521.586946  	95.753567 
523.023825  	95.656833 
524.460704  	95.421208 
525.897582  	95.177790 
527.334461  	94.826411 
528.771339  	94.959498 
530.208218  	94.954088 
531.645097  	94.876125 
533.081975  	95.201750 
534.518854  	95.047446 
535.955733  	94.812751 
537.392611  	95.091537 
538.829490  	95.146469 
540.266369  	95.040766 
541.703247  	95.052116 
543.140126  	95.255834 
544.577004  	95.527744 
546.013883  	95.437197 
547.450762  	95.384073 
548.887640  	95.415621 
550.324519  	95.364542 
551.761398  	95.666825 
553.198276  	95.825786 
554.635155  	95.706833 
556.072034  	95.804345 
557.508912  	95.844905 
558.945791  	95.919544 
560.382670  	95.991300 
561.819548  	95.873819 
563.256427  	96.044129 
564.693305  	96.181650 
566.130184  	96.033192 
567.567063  	95.978614 
569.003941  	95.882923 
570.440820  	95.882281 
571.877699  	95.968851 
573.314577  	95.954819 
574.751456  	96.088772 
576.188335  	96.098683 
577.625213  	96.062873 
579.062092  	96.248749 
580.498970  	96.193782 
581.935849  	96.215714 
583.372728  	96.392651 
584.809606  	96.258596 
586.246485  	96.321016 
587.683364  	96.462685 
589.120242  	96.334827 
590.557121  	96.352227 
591.994000  	96.391151 
593.430878  	96.480751 
594.867757  	96.613037 
596.304636  	96.468072 
597.741514  	96.508766 
599.178393  	96.630292 
600.615271  	96.535545 
602.052150  	96.691989 
603.489029  	96.771704 
604.925907  	96.707589 
606.362786  	96.775894 
607.799665  	96.714491 
609.236543  	96.667743 
610.673422  	96.824829 
612.110301  	96.920702 
613.547179  	97.045178 
614.984058  	97.061298 
616.420936  	97.009403 
617.857815  	97.094142 
619.294694  	97.126777 
620.731572  	97.125735 
622.168451  	97.131771 
623.605330  	97.099144 
625.042208  	97.143172 
626.479087  	97.154764 
627.915966  	97.116765 
629.352844  	97.160868 
630.789723  	97.091231 
632.226602  	97.052492 
633.663480  	97.066957 
635.100359  	96.968491 
636.537237  	96.932623 
637.974116  	96.937307 
639.410995  	96.865491 
640.847873  	96.815695 
642.284752  	96.732415 
643.721631  	96.643240 
645.158509  	96.590217 
646.595388  	96.418081 
648.032267  	96.324383 
649.469145  	96.280199 
650.906024  	96.225351 
652.342902  	96.261553 
653.779781  	96.242626 
655.216660  	96.263448 
656.653538  	96.363577 
658.090417  	96.406620 
659.527296  	96.509010 
660.964174  	96.631358 
662.401053  	96.670523 
663.837932  	96.762189 
665.274810  	97.026057 
666.711689  	97.419638 
668.148568  	97.120830 
669.585446  	96.671009 
671.022325  	96.920159 
672.459203  	97.262736 
673.896082  	97.206962 
675.332961  	97.182943 
676.769839  	97.241404 
678.206718  	97.220780 
679.643597  	97.270752 
681.080475  	97.268858 
682.517354  	97.267661 
683.954233  	97.275468 
685.391111  	97.216991 
686.827990  	97.259964 
688.264868  	97.209124 
689.701747  	97.126990 
691.138626  	97.183746 
692.575504  	97.122496 
694.012383  	97.052577 
695.449262  	97.118825 
696.886140  	97.026648 
698.323019  	97.043005 
699.759898  	97.191287 
701.196776  	97.262773 
702.633655  	97.381599 
704.070533  	97.489724 
705.507412  	97.615464 
706.944291  	97.765744 
708.381169  	97.833896 
709.818048  	97.922310 
711.254927  	97.961216 
712.691805  	97.976942 
714.128684  	98.189047 
715.565563  	98.295073 
717.002441  	98.304478 
718.439320  	98.338598 
719.876199  	98.253247 
721.313077  	98.220976 
722.749956  	98.275156 
724.186834  	98.257894 
725.623713  	98.246804 
727.060592  	98.183741 
728.497470  	98.109631 
729.934349  	98.166517 
731.371228  	98.136761 
732.808106  	98.128808 
734.244985  	98.150790 
735.681864  	98.050004 
737.118742  	98.063213 
738.555621  	98.064891 
739.992499  	97.980999 
741.429378  	98.017937 
742.866257  	97.984074 
744.303135  	97.879953 
745.740014  	97.829520 
747.176893  	97.759483 
748.613771  	97.758518 
750.050650  	97.756765 
751.487529  	97.733246 
752.924407  	97.789839 
754.361286  	97.809039 
755.798165  	97.888490 
757.235043  	98.016709 
758.671922  	98.005149 
760.108800  	98.016794 
761.545679  	98.038578 
762.982558  	98.020658 
764.419436  	98.078302 
765.856315  	98.062182 
767.293194  	97.989241 
768.730072  	97.894179 
770.166951  	97.695162 
771.603830  	97.600304 
773.040708  	97.590447 
774.477587  	97.592094 
775.914465  	97.707341 
777.351344  	97.801278 
778.788223  	97.931057 
780.225101  	98.106248 
781.661980  	98.125510 
783.098859  	98.181955 
784.535737  	98.291118 
785.972616  	98.324861 
787.409495  	98.418451 
788.846373  	98.450743 
790.283252  	98.421580 
791.720131  	98.468517 
793.157009  	98.471074 
794.593888  	98.478801 
796.030766  	98.480341 
797.467645  	98.431163 
798.904524  	98.436334 
800.341402  	98.379526 
801.778281  	98.332473 
803.215160  	98.329348 
804.652038  	98.154750 
806.088917  	98.008735 
807.525796  	97.896544 
808.962674  	97.623016 
810.399553  	97.379709 
811.836431  	97.132892 
813.273310  	96.909799 
814.710189  	96.891819 
816.147067  	96.967192 
817.583946  	97.203596 
819.020825  	97.514242 
820.457703  	97.654263 
821.894582  	97.783162 
823.331461  	97.813898 
824.768339  	97.648825 
826.205218  	97.520866 
827.642097  	97.387975 
829.078975  	97.290903 
830.515854  	97.290379 
831.952732  	97.291823 
833.389611  	97.470293 
834.826490  	97.748449 
836.263368  	97.915942 
837.700247  	98.086892 
839.137126  	98.224528 
840.574004  	98.343787 
842.010883  	98.504955 
843.447762  	98.571575 
844.884640  	98.630965 
846.321519  	98.692793 
847.758397  	98.667884 
849.195276  	98.691740 
850.632155  	98.726017 
852.069033  	98.730334 
853.505912  	98.737841 
854.942791  	98.679582 
856.379669  	98.659492 
857.816548  	98.661161 
859.253427  	98.602068 
860.690305  	98.592304 
862.127184  	98.565276 
863.564063  	98.520983 
865.000941  	98.498843 
866.437820  	98.376957 
867.874698  	98.281851 
869.311577  	98.167598 
870.748456  	97.859900 
872.185334  	97.646278 
873.622213  	97.647475 
875.059092  	97.706742 
876.495970  	97.776081 
877.932849  	97.795607 
879.369728  	97.812100 
880.806606  	97.842826 
882.243485  	97.849590 
883.680363  	97.898539 
885.117242  	97.899613 
886.554121  	97.849445 
887.990999  	97.840007 
889.427878  	97.769716 
890.864757  	97.703778 
892.301635  	97.669985 
893.738514  	97.563662 
895.175393  	97.499582 
896.612271  	97.436385 
898.049150  	97.282219 
899.486029  	97.126348 
900.922907  	96.939574 
902.359786  	96.777370 
903.796664  	96.668230 
905.233543  	96.524974 
906.670422  	96.451924 
908.107300  	96.410291 
909.544179  	96.298004 
910.981058  	96.229282 
912.417936  	96.211624 
913.854815  	96.241672 
915.291694  	96.287999 
916.728572  	96.232243 
918.165451  	96.176705 
919.602329  	96.153024 
921.039208  	96.062702 
922.476087  	95.961685 
923.912965  	95.873339 
925.349844  	95.826803 
926.786723  	95.804637 
928.223601  	95.699982 
929.660480  	95.597313 
931.097359  	95.513916 
932.534237  	95.367076 
933.971116  	95.238767 
935.407995  	95.137274 
936.844873  	95.049147 
938.281752  	95.018770 
939.718630  	95.021278 
941.155509  	95.082058 
942.592388  	95.177649 
944.029266  	95.262563 
945.466145  	95.391672 
946.903024  	95.510316 
948.339902  	95.580592 
949.776781  	95.662406 
951.213660  	95.733902 
952.650538  	95.800543 
954.087417  	95.867395 
955.524295  	95.926084 
956.961174  	95.996810 
958.398053  	96.028741 
959.834931  	96.067613 
961.271810  	96.154283 
962.708689  	96.196458 
964.145567  	96.237120 
965.582446  	96.270684 
967.019325  	96.243189 
968.456203  	96.254852 
969.893082  	96.249043 
971.329961  	96.196977 
972.766839  	96.217759 
974.203718  	96.229849 
975.640596  	96.200817 
977.077475  	96.174467 
978.514354  	96.100013 
979.951232  	96.041312 
981.388111  	95.992735 
982.824990  	95.880176 
984.261868  	95.781439 
985.698747  	95.717753 
987.135626  	95.660479 
988.572504  	95.599738 
990.009383  	95.520132 
991.446261  	95.453055 
992.883140  	95.357797 
994.320019  	95.211468 
995.756897  	95.049424 
997.193776  	94.830617 
998.630655  	94.610893 
1000.067533  	94.431693 
1001.504412  	94.200289 
1002.941291  	93.935204 
1004.378169  	93.679359 
1005.815048  	93.439028 
1007.251926  	93.233069 
1008.688805  	93.032778 
1010.125684  	92.884568 
1011.562562  	92.841291 
1012.999441  	92.862989 
1014.436320  	92.920931 
1015.873198  	92.980124 
1017.310077  	93.039598 
1018.746956  	93.108950 
1020.183834  	93.141855 
1021.620713  	93.162248 
1023.057592  	93.194065 
1024.494470  	93.209427 
1025.931349  	93.223387 
1027.368227  	93.241226 
1028.805106  	93.311503 
1030.241985  	93.446715 
1031.678863  	93.531781 
1033.115742  	93.549473 
1034.552621  	93.533837 
1035.989499  	93.489957 
1037.426378  	93.479480 
1038.863257  	93.500075 
1040.300135  	93.559816 
1041.737014  	93.670975 
1043.173892  	93.767768 
1044.610771  	93.897223 
1046.047650  	94.039021 
1047.484528  	94.097868 
1048.921407  	94.189267 
1050.358286  	94.321220 
1051.795164  	94.393176 
1053.232043  	94.450743 
1054.668922  	94.468922 
1056.105800  	94.469258 
1057.542679  	94.518146 
1058.979558  	94.543336 
1060.416436  	94.582816 
1061.853315  	94.657413 
1063.290193  	94.706520 
1064.727072  	94.788384 
1066.163951  	94.848658 
1067.600829  	94.845280 
1069.037708  	94.872436 
1070.474587  	94.881036 
1071.911465  	94.862484 
1073.348344  	94.866389 
1074.785223  	94.880494 
1076.222101  	94.983214 
1077.658980  	95.147849 
1079.095858  	95.279457 
1080.532737  	95.418157 
1081.969616  	95.556333 
1083.406494  	95.693226 
1084.843373  	95.828253 
1086.280252  	95.886660 
1087.717130  	95.942720 
1089.154009  	96.048111 
1090.590888  	96.114850 
1092.027766  	96.137570 
1093.464645  	96.129269 
1094.901524  	96.103191 
1096.338402  	96.055965 
1097.775281  	95.951873 
1099.212159  	95.862208 
1100.649038  	95.795061 
1102.085917  	95.691215 
1103.522795  	95.574926 
1104.959674  	95.431958 
1106.396553  	95.300618 
1107.833431  	95.220811 
1109.270310  	95.088755 
1110.707189  	94.901055 
1112.144067  	94.728441 
1113.580946  	94.560743 
1115.017824  	94.403132 
1116.454703  	94.299800 
1117.891582  	94.286803 
1119.328460  	94.294222 
1120.765339  	94.241890 
1122.202218  	94.164848 
1123.639096  	94.056404 
1125.075975  	93.903443 
1126.512854  	93.734145 
1127.949732  	93.523361 
1129.386611  	93.315361 
1130.823490  	93.137354 
1132.260368  	92.937285 
1133.697247  	92.735314 
1135.134125  	92.521642 
1136.571004  	92.311149 
1138.007883  	92.183756 
1139.444761  	92.106367 
1140.881640  	92.034381 
1142.318519  	91.954548 
1143.755397  	91.862610 
1145.192276  	91.791657 
1146.629155  	91.703416 
1148.066033  	91.574765 
1149.502912  	91.439103 
1150.939790  	91.288256 
1152.376669  	91.144878 
1153.813548  	91.001375 
1155.250426  	90.850205 
1156.687305  	90.738226 
1158.124184  	90.612341 
1159.561062  	90.487970 
1160.997941  	90.452877 
1162.434820  	90.455419 
1163.871698  	90.478154 
1165.308577  	90.534428 
1166.745456  	90.605958 
1168.182334  	90.726728 
1169.619213  	90.884811 
1171.056091  	91.076010 
1172.492970  	91.308035 
1173.929849  	91.523196 
1175.366727  	91.735259 
1176.803606  	91.962768 
1178.240485  	92.178011 
1179.677363  	92.411062 
1181.114242  	92.648611 
1182.551121  	92.878298 
1183.987999  	93.133523 
1185.424878  	93.372141 
1186.861756  	93.595511 
1188.298635  	93.835712 
1189.735514  	94.048623 
1191.172392  	94.250692 
1192.609271  	94.442396 
1194.046150  	94.572412 
1195.483028  	94.695518 
1196.919907  	94.836634 
1198.356786  	94.969280 
1199.793664  	95.111011 
1201.230543  	95.234513 
1202.667422  	95.351081 
1204.104300  	95.487476 
1205.541179  	95.588080 
1206.978057  	95.662888 
1208.414936  	95.715154 
1209.851815  	95.688333 
1211.288693  	95.599154 
1212.725572  	95.449107 
1214.162451  	95.255573 
1215.599329  	95.064363 
1217.036208  	94.853534 
1218.473087  	94.646119 
1219.909965  	94.458877 
1221.346844  	94.279526 
1222.783722  	94.135392 
1224.220601  	93.995987 
1225.657480  	93.847698 
1227.094358  	93.702147 
1228.531237  	93.533673 
1229.968116  	93.383289 
1231.404994  	93.268499 
1232.841873  	93.181770 
1234.278752  	93.156905 
1235.715630  	93.146496 
1237.152509  	93.129230 
1238.589388  	93.158011 
1240.026266  	93.222705 
1241.463145  	93.301449 
1242.900023  	93.374623 
1244.336902  	93.434490 
1245.773781  	93.521628 
1247.210659  	93.632764 
1248.647538  	93.755291 
1250.084417  	93.906194 
1251.521295  	94.079375 
1252.958174  	94.280605 
1254.395053  	94.504681 
1255.831931  	94.743760 
1257.268810  	95.024672 
1258.705688  	95.306381 
1260.142567  	95.535669 
1261.579446  	95.752651 
1263.016324  	95.960856 
1264.453203  	96.132062 
1265.890082  	96.267810 
1267.326960  	96.342054 
1268.763839  	96.383038 
1270.200718  	96.428291 
1271.637596  	96.454567 
1273.074475  	96.491598 
1274.511353  	96.543961 
1275.948232  	96.574555 
1277.385111  	96.598044 
1278.821989  	96.602858 
1280.258868  	96.580511 
1281.695747  	96.548322 
1283.132625  	96.493967 
1284.569504  	96.417620 
1286.006383  	96.287427 
1287.443261  	96.086865 
1288.880140  	95.880574 
1290.317019  	95.660788 
1291.753897  	95.393747 
1293.190776  	95.141584 
1294.627654  	94.959704 
1296.064533  	94.872534 
1297.501412  	94.919045 
1298.938290  	95.085508 
1300.375169  	95.322749 
1301.812048  	95.536878 
1303.248926  	95.750543 
1304.685805  	95.933199 
1306.122684  	96.109598 
1307.559562  	96.228313 
1308.996441  	96.350977 
1310.433319  	96.473980 
1311.870198  	96.499151 
1313.307077  	96.440182 
1314.743955  	96.403911 
1316.180834  	96.381128 
1317.617713  	96.297163 
1319.054591  	96.203892 
1320.491470  	96.234147 
1321.928349  	96.414997 
1323.365227  	96.675765 
1324.802106  	96.945674 
1326.238985  	97.204888 
1327.675863  	97.392591 
1329.112742  	97.581290 
1330.549620  	97.766087 
1331.986499  	97.940855 
1333.423378  	98.122072 
1334.860256  	98.154279 
1336.297135  	98.154406 
1337.734014  	98.080532 
1339.170892  	97.873299 
1340.607771  	97.740034 
1342.044650  	97.912848 
1343.481528  	98.131660 
1344.918407  	98.211788 
1346.355285  	98.254242 
1347.792164  	98.257698 
1349.229043  	98.208453 
1350.665921  	98.161476 
1352.102800  	98.097132 
1353.539679  	98.012673 
1354.976557  	97.945166 
1356.413436  	97.895969 
1357.850315  	97.881173 
1359.287193  	97.880001 
1360.724072  	97.815147 
1362.160951  	97.579124 
1363.597829  	97.290242 
1365.034708  	97.323474 
1366.471586  	97.505655 
1367.908465  	97.543628 
1369.345344  	97.487826 
1370.782222  	97.573430 
1372.219101  	97.719221 
1373.655980  	97.697795 
1375.092858  	97.539899 
1376.529737  	97.532816 
1377.966616  	97.639284 
1379.403494  	97.719186 
1380.840373  	97.765325 
1382.277251  	97.750736 
1383.714130  	97.693884 
1385.151009  	97.671970 
1386.587887  	97.561057 
1388.024766  	97.331566 
1389.461645  	97.309978 
1390.898523  	97.489729 
1392.335402  	97.743733 
1393.772281  	97.866082 
1395.209159  	97.727745 
1396.646038  	97.708950 
1398.082917  	97.818810 
1399.519795  	97.764850 
1400.956674  	97.757560 
1402.393552  	97.922308 
1403.830431  	97.997238 
1405.267310  	97.880226 
1406.704188  	97.793065 
1408.141067  	97.846294 
1409.577946  	97.880673 
1411.014824  	97.830822 
1412.451703  	97.810300 
1413.888582  	97.832993 
1415.325460  	97.837000 
1416.762339  	97.909962 
1418.199217  	97.931195 
1419.636096  	97.701601 
1421.072975  	97.648104 
1422.509853  	97.779045 
1423.946732  	97.792235 
1425.383611  	97.657347 
1426.820489  	97.720557 
1428.257368  	97.843475 
1429.694247  	97.743235 
1431.131125  	97.452953 
1432.568004  	97.249574 
1434.004883  	97.311188 
1435.441761  	97.448521 
1436.878640  	97.079466 
1438.315518  	96.724605 
1439.752397  	96.841070 
1441.189276  	96.926350 
1442.626154  	96.830774 
1444.063033  	96.696831 
1445.499912  	96.635067 
1446.936790  	96.559497 
1448.373669  	96.211303 
1449.810548  	95.997056 
1451.247426  	96.011017 
1452.684305  	95.974950 
1454.121183  	96.198812 
1455.558062  	96.824324 
1456.994941  	96.908506 
1458.431819  	95.803556 
1459.868698  	95.682679 
1461.305577  	96.185375 
1462.742455  	96.714303 
1464.179334  	96.947324 
1465.616213  	96.712867 
1467.053091  	96.664902 
1468.489970  	97.092349 
1469.926849  	97.683186 
1471.363727  	97.979520 
1472.800606  	97.626304 
1474.237484  	97.438060 
1475.674363  	97.606999 
1477.111242  	97.817153 
1478.548120  	98.060256 
1479.984999  	98.318134 
1481.421878  	98.488326 
1482.858756  	98.586440 
1484.295635  	98.764606 
1485.732514  	98.910135 
1487.169392  	98.940819 
1488.606271  	98.891518 
1490.043149  	98.562652 
1491.480028  	98.323937 
1492.916907  	98.544150 
1494.353785  	98.896900 
1495.790664  	99.044580 
1497.227543  	98.575388 
1498.664421  	98.141340 
1500.101300  	97.951403 
1501.538179  	97.676872 
1502.975057  	97.647773 
1504.411936  	98.219412 
1505.848815  	98.762130 
1507.285693  	96.255560 
1508.722572  	95.029556 
1510.159450  	95.489419 
1511.596329  	95.815632 
1513.033208  	96.162163 
1514.470086  	96.642085 
1515.906965  	97.069233 
1517.343844  	97.056145 
1518.780722  	97.168206 
1520.217601  	97.642363 
1521.654480  	97.366827 
1523.091358  	96.715921 
1524.528237  	97.038619 
1525.965115  	97.403625 
1527.401994  	97.182364 
1528.838873  	96.993971 
1530.275751  	97.304115 
1531.712630  	97.834447 
1533.149509  	97.855691 
1534.586387  	97.067904 
1536.023266  	97.349171 
1537.460145  	98.402454 
1538.897023  	99.586695 
1540.333902  	98.742128 
1541.770780  	97.978915 
1543.207659  	98.196089 
1544.644538  	98.001133 
1546.081416  	98.095691 
1547.518295  	98.610722 
1548.955174  	98.825872 
1550.392052  	98.833503 
1551.828931  	99.059658 
1553.265810  	99.374662 
1554.702688  	99.427289 
1556.139567  	99.586382 
1557.576446  	100.431434 
1559.013324  	100.996704 
1560.450203  	99.294242 
1561.887081  	99.588819 
1563.323960  	99.997749 
1564.760839  	100.159940 
1566.197717  	100.013340 
1567.634596  	100.346740 
1569.071475  	100.787480 
1570.508353  	100.238579 
1571.945232  	99.937347 
1573.382111  	100.412283 
1574.818989  	100.824207 
1576.255868  	100.665846 
1577.692746  	100.129547 
1579.129625  	100.177668 
1580.566504  	100.365962 
1582.003382  	100.355592 
1583.440261  	100.268889 
1584.877140  	100.340090 
1586.314018  	100.437699 
1587.750897  	100.536804 
1589.187776  	100.571527 
1590.624654  	100.535006 
1592.061533  	100.505111 
1593.498412  	100.484562 
1594.935290  	100.436563 
1596.372169  	100.350336 
1597.809047  	100.308478 
1599.245926  	100.367987 
1600.682805  	100.375574 
1602.119683  	100.232512 
1603.556562  	100.062303 
1604.993441  	99.964851 
1606.430319  	99.959436 
1607.867198  	99.959501 
1609.304077  	99.914208 
1610.740955  	99.830352 
1612.177834  	99.755186 
1613.614712  	99.942321 
1615.051591  	100.162330 
1616.488470  	100.164047 
1617.925348  	99.716054 
1619.362227  	99.617130 
1620.799106  	99.800031 
1622.235984  	99.911693 
1623.672863  	99.594808 
1625.109742  	99.339835 
1626.546620  	99.411710 
1627.983499  	99.386122 
1629.420378  	99.100307 
1630.857256  	98.925375 
1632.294135  	99.091576 
1633.731013  	99.571200 
1635.167892  	99.790365 
1636.604771  	98.563707 
1638.041649  	98.093138 
1639.478528  	98.444728 
1640.915407  	98.778195 
1642.352285  	98.896735 
1643.789164  	99.336575 
1645.226043  	100.184458 
1646.662921  	100.335807 
1648.099800  	99.096786 
1649.536678  	99.039649 
1650.973557  	99.956825 
1652.410436  	101.327534 
1653.847314  	99.427132 
1655.284193  	98.568327 
1656.721072  	99.100783 
1658.157950  	99.468446 
1659.594829  	99.557329 
1661.031708  	99.544131 
1662.468586  	99.475378 
1663.905465  	99.180039 
1665.342344  	99.051889 
1666.779222  	99.261709 
1668.216101  	99.512924 
1669.652979  	99.079800 
1671.089858  	98.651235 
1672.526737  	98.707574 
1673.963615  	98.850193 
1675.400494  	98.649256 
1676.837373  	98.194469 
1678.274251  	98.169953 
1679.711130  	98.140658 
1681.148009  	97.977749 
1682.584887  	98.278082 
1684.021766  	98.300136 
1685.458644  	96.637986 
1686.895523  	96.552262 
1688.332402  	96.601318 
1689.769280  	96.322595 
1691.206159  	95.926490 
1692.643038  	95.809668 
1694.079916  	96.364036 
1695.516795  	96.203038 
1696.953674  	94.309096 
1698.390552  	94.616093 
1699.827431  	95.237265 
1701.264310  	92.894165 
1702.701188  	92.647780 
1704.138067  	93.216048 
1705.574945  	92.907320 
1707.011824  	91.857653 
1708.448703  	91.565380 
1709.885581  	91.537238 
1711.322460  	91.364790 
1712.759339  	91.292548 
1714.196217  	91.388309 
1715.633096  	91.499308 
1717.069975  	91.526330 
1718.506853  	90.623846 
1719.943732  	90.246839 
1721.380610  	90.899174 
1722.817489  	91.458467 
1724.254368  	91.499359 
1725.691246  	91.807561 
1727.128125  	92.406662 
1728.565004  	92.753530 
1730.001882  	92.910295 
1731.438761  	93.345486 
1732.875640  	94.159877 
1734.312518  	94.347903 
1735.749397  	94.077864 
1737.186276  	94.912802 
1738.623154  	95.874819 
1740.060033  	96.343763 
1741.496911  	96.692113 
1742.933790  	97.274296 
1744.370669  	97.834329 
1745.807547  	98.406125 
1747.244426  	98.886568 
1748.681305  	99.252169 
1750.118183  	99.606312 
1751.555062  	99.655946 
1752.991941  	99.900083 
1754.428819  	100.470434 
1755.865698  	100.821529 
1757.302576  	100.652422 
1758.739455  	100.625764 
1760.176334  	100.955177 
1761.613212  	101.129767 
1763.050091  	100.728062 
1764.486970  	100.803512 
1765.923848  	101.293182 
1767.360727  	101.346689 
1768.797606  	101.280449 
1770.234484  	101.436360 
1771.671363  	101.569321 
1773.108242  	101.348688 
1774.545120  	101.125864 
1775.981999  	101.183396 
1777.418877  	101.365112 
1778.855756  	101.388660 
1780.292635  	101.374648 
1781.729513  	101.384157 
1783.166392  	101.391200 
1784.603271  	101.441827 
1786.040149  	101.373265 
1787.477028  	101.323163 
1788.913907  	101.481679 
1790.350785  	101.618749 
1791.787664  	101.629614 
1793.224542  	101.477278 
1794.661421  	101.321583 
1796.098300  	101.378125 
1797.535178  	101.513072 
1798.972057  	101.599276 
1800.408936  	101.618689 
1801.845814  	101.479672 
1803.282693  	101.472152 
1804.719572  	101.597536 
1806.156450  	101.595707 
1807.593329  	101.596664 
1809.030207  	101.660680 
1810.467086  	101.658764 
1811.903965  	101.643644 
1813.340843  	101.634283 
1814.777722  	101.707381 
1816.214601  	101.772162 
1817.651479  	101.725834 
1819.088358  	101.704598 
1820.525237  	101.738242 
1821.962115  	101.771342 
1823.398994  	101.856571 
1824.835873  	101.738715 
1826.272751  	101.616081 
1827.709630  	101.776071 
1829.146508  	101.898489 
1830.583387  	101.776030 
1832.020266  	101.627038 
1833.457144  	101.632871 
1834.894023  	101.788061 
1836.330902  	101.794750 
1837.767780  	101.731114 
1839.204659  	101.788186 
1840.641538  	101.856484 
1842.078416  	101.969939 
1843.515295  	102.060903 
1844.952173  	101.812077 
1846.389052  	101.679796 
1847.825931  	101.748407 
1849.262809  	101.838456 
1850.699688  	101.899536 
1852.136567  	101.908224 
1853.573445  	101.994289 
1855.010324  	102.044799 
1856.447203  	101.926373 
1857.884081  	101.889028 
1859.320960  	101.830783 
1860.757839  	101.806647 
1862.194717  	101.937097 
1863.631596  	101.925794 
1865.068474  	101.991001 
1866.505353  	102.190088 
1867.942232  	102.116008 
1869.379110  	101.883051 
1870.815989  	101.688812 
1872.252868  	101.714715 
1873.689746  	101.986414 
1875.126625  	102.030018 
1876.563504  	101.979157 
1878.000382  	102.041104 
1879.437261  	101.948444 
1880.874139  	101.935032 
1882.311018  	101.997384 
1883.747897  	101.965884 
1885.184775  	101.990373 
1886.621654  	101.991711 
1888.058533  	102.048814 
1889.495411  	102.080908 
1890.932290  	101.930751 
1892.369169  	101.971528 
1893.806047  	102.077609 
1895.242926  	102.012540 
1896.679805  	101.978441 
1898.116683  	101.972203 
1899.553562  	102.036282 
1900.990440  	102.119627 
1902.427319  	102.051289 
1903.864198  	102.042632 
1905.301076  	102.126653 
1906.737955  	102.088369 
1908.174834  	102.115807 
1909.611712  	102.106583 
1911.048591  	102.031199 
1912.485470  	102.071919 
1913.922348  	102.105430 
1915.359227  	102.286747 
1916.796105  	102.395362 
1918.232984  	102.182091 
1919.669863  	102.094883 
1921.106741  	102.200014 
1922.543620  	102.170499 
1923.980499  	102.094731 
1925.417377  	102.046099 
1926.854256  	102.238732 
1928.291135  	102.317530 
1929.728013  	102.267057 
1931.164892  	102.301894 
1932.601771  	102.328043 
1934.038649  	102.292830 
1935.475528  	102.324289 
1936.912406  	102.231414 
1938.349285  	102.230898 
1939.786164  	102.339168 
1941.223042  	102.277521 
1942.659921  	102.284263 
1944.096800  	102.309576 
1945.533678  	102.253237 
1946.970557  	102.417026 
1948.407436  	102.538321 
1949.844314  	102.556034 
1951.281193  	102.709412 
1952.718071  	102.623456 
1954.154950  	102.604081 
1955.591829  	102.567627 
1957.028707  	102.562368 
1958.465586  	102.935486 
1959.902465  	102.937285 
1961.339343  	102.818811 
1962.776222  	102.987392 
1964.213101  	102.791289 
1965.649979  	102.836729 
1967.086858  	102.986788 
1968.523737  	102.802235 
1969.960615  	102.949288 
1971.397494  	102.962890 
1972.834372  	102.873719 
1974.271251  	103.023217 
1975.708130  	103.008449 
1977.145008  	103.004255 
1978.581887  	102.968323 
1980.018766  	102.816777 
1981.455644  	102.883967 
1982.892523  	102.817193 
1984.329402  	102.723905 
1985.766280  	102.906926 
1987.203159  	102.664166 
1988.640037  	102.548025 
1990.076916  	102.545230 
1991.513795  	102.310452 
1992.950673  	102.558252 
1994.387552  	102.662677 
1995.824431  	102.693817 
1997.261309  	102.973378 
1998.698188  	102.635567 
2000.135067  	102.492126 
2001.571945  	102.799993 
2003.008824  	102.739947 
2004.445703  	102.875691 
2005.882581  	102.958255 
2007.319460  	102.924524 
2008.756338  	103.203959 
2010.193217  	102.890965 
2011.630096  	102.800313 
2013.066974  	103.126675 
2014.503853  	102.770653 
2015.940732  	102.688091 
2017.377610  	102.896379 
2018.814489  	102.906184 
2020.251368  	103.110863 
2021.688246  	102.905817 
2023.125125  	102.883132 
2024.562003  	103.099663 
2025.998882  	102.672992 
2027.435761  	102.795188 
2028.872639  	103.243739 
2030.309518  	103.182686 
2031.746397  	103.247007 
2033.183275  	102.897435 
2034.620154  	102.665886 
2036.057033  	102.980179 
2037.493911  	102.868676 
2038.930790  	102.818822 
2040.367669  	102.754891 
2041.804547  	102.475321 
2043.241426  	102.563238 
2044.678304  	102.465968 
2046.115183  	102.459140 
2047.552062  	102.729668 
2048.988940  	102.530638 
2050.425819  	102.538355 
2051.862698  	102.736858 
2053.299576  	102.615137 
2054.736455  	102.622506 
2056.173334  	102.589874 
2057.610212  	102.552135 
2059.047091  	102.675789 
2060.483969  	102.589045 
2061.920848  	102.612643 
2063.357727  	102.656708 
2064.794605  	102.462080 
2066.231484  	102.436537 
2067.668363  	102.379764 
2069.105241  	102.439792 
2070.542120  	102.700348 
2071.978999  	102.544808 
2073.415877  	102.382368 
2074.852756  	102.396203 
2076.289635  	102.327820 
2077.726513  	102.488828 
2079.163392  	102.489589 
2080.600270  	102.292113 
2082.037149  	102.411566 
2083.474028  	102.480061 
2084.910906  	102.476561 
2086.347785  	102.500834 
2087.784664  	102.386635 
2089.221542  	102.473484 
2090.658421  	102.523993 
2092.095300  	102.381133 
2093.532178  	102.503400 
2094.969057  	102.585442 
2096.405935  	102.468287 
2097.842814  	102.414984 
2099.279693  	102.388038 
2100.716571  	102.477147 
2102.153450  	102.479894 
2103.590329  	102.397564 
2105.027207  	102.510083 
2106.464086  	102.516512 
2107.900965  	102.475094 
2109.337843  	102.524928 
2110.774722  	102.463902 
2112.211600  	102.510573 
2113.648479  	102.512059 
2115.085358  	102.361955 
2116.522236  	102.431224 
2117.959115  	102.534453 
2119.395994  	102.600129 
2120.832872  	102.647902 
2122.269751  	102.519820 
2123.706630  	102.581745 
2125.143508  	102.700457 
2126.580387  	102.629609 
2128.017266  	102.722953 
2129.454144  	102.749696 
2130.891023  	102.741231 
2132.327901  	102.899048 
2133.764780  	102.799180 
2135.201659  	102.786837 
2136.638537  	102.869266 
2138.075416  	102.699238 
2139.512295  	102.871379 
2140.949173  	103.002779 
2142.386052  	102.839757 
2143.822931  	102.920080 
2145.259809  	102.807636 
2146.696688  	102.756925 
2148.133566  	102.937747 
2149.570445  	102.805571 
2151.007324  	102.974017 
2152.444202  	103.340731 
2153.881081  	103.436403 
2155.317960  	103.535063 
2156.754838  	103.261898 
2158.191717  	103.231106 
2159.628596  	103.370344 
2161.065474  	102.731179 
2162.502353  	102.616452 
2163.939232  	102.872366 
2165.376110  	102.821251 
2166.812989  	102.921208 
2168.249867  	102.904361 
2169.686746  	102.943893 
2171.123625  	103.043357 
2172.560503  	102.936626 
2173.997382  	103.193048 
2175.434261  	103.240997 
2176.871139  	102.991363 
2178.308018  	103.312745 
2179.744897  	103.237810 
2181.181775  	102.709769 
2182.618654  	102.674452 
2184.055532  	102.824265 
2185.492411  	103.001726 
2186.929290  	102.952534 
2188.366168  	102.763754 
2189.803047  	102.947447 
2191.239926  	102.975842 
2192.676804  	102.915654 
2194.113683  	102.943683 
2195.550562  	102.637127 
2196.987440  	102.600974 
2198.424319  	102.772599 
2199.861198  	102.670575 
2201.298076  	102.738770 
2202.734955  	102.761248 
2204.171833  	102.713359 
2205.608712  	102.903698 
2207.045591  	102.917496 
2208.482469  	102.827825 
2209.919348  	102.736930 
2211.356227  	102.632137 
2212.793105  	102.787105 
2214.229984  	102.874822 
2215.666863  	102.873593 
2217.103741  	102.919362 
2218.540620  	102.772796 
2219.977498  	102.774836 
2221.414377  	102.801946 
2222.851256  	102.659195 
2224.288134  	102.787332 
2225.725013  	102.870646 
2227.161892  	102.794881 
2228.598770  	102.795402 
2230.035649  	102.648371 
2231.472528  	102.633245 
2232.909406  	102.719412 
2234.346285  	102.678936 
2235.783164  	102.786383 
2237.220042  	102.749098 
2238.656921  	102.644469 
2240.093799  	102.763080 
2241.530678  	102.643439 
2242.967557  	102.533190 
2244.404435  	102.603657 
2245.841314  	102.484931 
2247.278193  	102.487461 
2248.715071  	102.574959 
2250.151950  	102.541656 
2251.588829  	102.564975 
2253.025707  	102.540001 
2254.462586  	102.528270 
2255.899464  	102.566776 
2257.336343  	102.514836 
2258.773222  	102.527074 
2260.210100  	102.560959 
2261.646979  	102.540704 
2263.083858  	102.569580 
2264.520736  	102.558692 
2265.957615  	102.538547 
2267.394494  	102.563068 
2268.831372  	102.510330 
2270.268251  	102.501462 
2271.705130  	102.499639 
2273.142008  	102.462106 
2274.578887  	102.477080 
2276.015765  	102.472460 
2277.452644  	102.444230 
2278.889523  	102.459033 
2280.326401  	102.410479 
2281.763280  	102.390324 
2283.200159  	102.366688 
2284.637037  	102.295617 
2286.073916  	102.252703 
2287.510795  	102.219904 
2288.947673  	102.175246 
2290.384552  	102.163074 
2291.821430  	102.111559 
2293.258309  	102.063475 
2294.695188  	102.060728 
2296.132066  	102.027514 
2297.568945  	102.017593 
2299.005824  	101.922502 
2300.442702  	101.836215 
2301.879581  	101.808961 
2303.316460  	101.711255 
2304.753338  	101.636025 
2306.190217  	101.609046 
2307.627096  	101.484128 
2309.063974  	101.413356 
2310.500853  	101.370263 
2311.937731  	101.315173 
2313.374610  	101.312766 
2314.811489  	101.254245 
2316.248367  	101.253883 
2317.685246  	101.265217 
2319.122125  	101.124285 
2320.559003  	101.046238 
2321.995882  	100.939634 
2323.432761  	100.723155 
2324.869639  	100.650590 
2326.306518  	100.663842 
2327.743396  	100.740379 
2329.180275  	100.821145 
2330.617154  	100.766264 
2332.054032  	100.789068 
2333.490911  	100.859714 
2334.927790  	100.884260 
2336.364668  	100.988389 
2337.801547  	101.030286 
2339.238426  	101.053890 
2340.675304  	101.072531 
2342.112183  	100.926614 
2343.549062  	100.847071 
2344.985940  	100.705642 
2346.422819  	100.430272 
2347.859697  	100.464931 
2349.296576  	100.715591 
2350.733455  	101.035110 
2352.170333  	101.278866 
2353.607212  	101.219854 
2355.044091  	101.208887 
2356.480969  	101.313390 
2357.917848  	101.239407 
2359.354727  	101.223295 
2360.791605  	101.221782 
2362.228484  	101.205382 
2363.665362  	101.364098 
2365.102241  	101.413244 
2366.539120  	101.393455 
2367.975998  	101.429038 
2369.412877  	101.364426 
2370.849756  	101.360376 
2372.286634  	101.392206 
2373.723513  	101.402104 
2375.160392  	101.483951 
2376.597270  	101.522284 
2378.034149  	101.579687 
2379.471027  	101.672049 
2380.907906  	101.718260 
2382.344785  	101.886772 
2383.781663  	102.096033 
2385.218542  	102.221613 
2386.655421  	102.367791 
2388.092299  	102.431334 
2389.529178  	102.450885 
2390.966057  	102.507225 
2392.402935  	102.486582 
2393.839814  	102.456383 
2395.276693  	102.462175 
2396.713571  	102.445402 
2398.150450  	102.455288 
2399.587328  	102.448030 
2401.024207  	102.416641 
2402.461086  	102.391965 
2403.897964  	102.356745 
2405.334843  	102.383194 
2406.771722  	102.400470 
2408.208600  	102.356942 
2409.645479  	102.346596 
2411.082358  	102.314285 
2412.519236  	102.294375 
2413.956115  	102.333714 
2415.392993  	102.361946 
2416.829872  	102.416615 
2418.266751  	102.430421 
2419.703629  	102.415964 
2421.140508  	102.477714 
2422.577387  	102.468870 
2424.014265  	102.445910 
2425.451144  	102.476976 
2426.888023  	102.411647 
2428.324901  	102.397522 
2429.761780  	102.452418 
2431.198659  	102.440212 
2432.635537  	102.459790 
2434.072416  	102.450645 
2435.509294  	102.426708 
2436.946173  	102.455944 
2438.383052  	102.397690 
2439.819930  	102.372150 
2441.256809  	102.417767 
2442.693688  	102.391227 
2444.130566  	102.401110 
2445.567445  	102.419826 
2447.004324  	102.404259 
2448.441202  	102.419145 
2449.878081  	102.400775 
2451.314959  	102.426037 
2452.751838  	102.448297 
2454.188717  	102.374619 
2455.625595  	102.387237 
2457.062474  	102.408327 
2458.499353  	102.374434 
2459.936231  	102.412221 
2461.373110  	102.395414 
2462.809989  	102.360077 
2464.246867  	102.388697 
2465.683746  	102.373320 
2467.120625  	102.381982 
2468.557503  	102.388232 
2469.994382  	102.365366 
2471.431260  	102.403808 
2472.868139  	102.406608 
2474.305018  	102.416175 
2475.741896  	102.450873 
2477.178775  	102.403027 
2478.615654  	102.404475 
2480.052532  	102.415170 
2481.489411  	102.382936 
2482.926290  	102.421939 
2484.363168  	102.400172 
2485.800047  	102.377014 
2487.236925  	102.443470 
2488.673804  	102.428381 
2490.110683  	102.437789 
2491.547561  	102.474405 
2492.984440  	102.405621 
2494.421319  	102.367324 
2495.858197  	102.351860 
2497.295076  	102.362580 
2498.731955  	102.414215 
2500.168833  	102.376814 
2501.605712  	102.374075 
2503.042591  	102.407180 
2504.479469  	102.381229 
2505.916348  	102.427282 
2507.353226  	102.432306 
2508.790105  	102.381550 
2510.226984  	102.424160 
2511.663862  	102.433520 
2513.100741  	102.446693 
2514.537620  	102.474357 
2515.974498  	102.404525 
2517.411377  	102.398043 
2518.848256  	102.432526 
2520.285134  	102.412966 
2521.722013  	102.406815 
2523.158891  	102.381059 
2524.595770  	102.414080 
2526.032649  	102.455246 
2527.469527  	102.380246 
2528.906406  	102.356100 
2530.343285  	102.330599 
2531.780163  	102.266741 
2533.217042  	102.330030 
2534.653921  	102.385050 
2536.090799  	102.387637 
2537.527678  	102.397598 
2538.964557  	102.367764 
2540.401435  	102.392799 
2541.838314  	102.385929 
2543.275192  	102.321768 
2544.712071  	102.380958 
2546.148950  	102.416414 
2547.585828  	102.385100 
2549.022707  	102.392278 
2550.459586  	102.349983 
2551.896464  	102.333706 
2553.333343  	102.359695 
2554.770222  	102.345207 
2556.207100  	102.341442 
2557.643979  	102.311830 
2559.080857  	102.320205 
2560.517736  	102.386117 
2561.954615  	102.376276 
2563.391493  	102.379429 
2564.828372  	102.374774 
2566.265251  	102.318840 
2567.702129  	102.339491 
2569.139008  	102.321246 
2570.575887  	102.290305 
2572.012765  	102.357350 
2573.449644  	102.346182 
2574.886523  	102.313956 
2576.323401  	102.332976 
2577.760280  	102.310265 
2579.197158  	102.326165 
2580.634037  	102.325590 
2582.070916  	102.275439 
2583.507794  	102.282217 
2584.944673  	102.279207 
2586.381552  	102.289524 
2587.818430  	102.319940 
2589.255309  	102.286497 
2590.692188  	102.279607 
2592.129066  	102.283537 
2593.565945  	102.270157 
2595.002823  	102.308969 
2596.439702  	102.328933 
2597.876581  	102.333345 
2599.313459  	102.335609 
2600.750338  	102.302454 
2602.187217  	102.312021 
2603.624095  	102.321074 
2605.060974  	102.308849 
2606.497853  	102.325988 
2607.934731  	102.302843 
2609.371610  	102.292775 
2610.808489  	102.308205 
2612.245367  	102.281307 
2613.682246  	102.301166 
2615.119124  	102.317283 
2616.556003  	102.293855 
2617.992882  	102.331337 
2619.429760  	102.347539 
2620.866639  	102.325830 
2622.303518  	102.322786 
2623.740396  	102.320644 
2625.177275  	102.368190 
2626.614154  	102.390607 
2628.051032  	102.342911 
2629.487911  	102.336346 
2630.924789  	102.341936 
2632.361668  	102.352831 
2633.798547  	102.377380 
2635.235425  	102.360292 
2636.672304  	102.365488 
2638.109183  	102.365854 
2639.546061  	102.330775 
2640.982940  	102.342289 
2642.419819  	102.334090 
2643.856697  	102.316089 
2645.293576  	102.350349 
2646.730454  	102.349998 
2648.167333  	102.345483 
2649.604212  	102.358868 
2651.041090  	102.343861 
2652.477969  	102.350460 
2653.914848  	102.349193 
2655.351726  	102.340156 
2656.788605  	102.365794 
2658.225484  	102.353131 
2659.662362  	102.332739 
2661.099241  	102.348784 
2662.536120  	102.358048 
2663.972998  	102.380453 
2665.409877  	102.388243 
2666.846755  	102.379819 
2668.283634  	102.397099 
2669.720513  	102.386293 
2671.157391  	102.376539 
2672.594270  	102.393910 
2674.031149  	102.384251 
2675.468027  	102.388753 
2676.904906  	102.396898 
2678.341785  	102.382324 
2679.778663  	102.390153 
2681.215542  	102.389422 
2682.652420  	102.385904 
2684.089299  	102.393083 
2685.526178  	102.380491 
2686.963056  	102.394478 
2688.399935  	102.407708 
2689.836814  	102.381852 
2691.273692  	102.371543 
2692.710571  	102.363840 
2694.147450  	102.366027 
2695.584328  	102.385791 
2697.021207  	102.382334 
2698.458086  	102.386476 
2699.894964  	102.386647 
2701.331843  	102.376895 
2702.768721  	102.390367 
2704.205600  	102.383816 
2705.642479  	102.391555 
2707.079357  	102.416629 
2708.516236  	102.393210 
2709.953115  	102.396301 
2711.389993  	102.405522 
2712.826872  	102.368880 
2714.263751  	102.379051 
2715.700629  	102.398016 
2717.137508  	102.392427 
2718.574386  	102.407271 
2720.011265  	102.399543 
2721.448144  	102.403471 
2722.885022  	102.426345 
2724.321901  	102.405575 
2725.758780  	102.386869 
2727.195658  	102.381905 
2728.632537  	102.392661 
2730.069416  	102.422678 
2731.506294  	102.413261 
2732.943173  	102.406566 
2734.380052  	102.411697 
2735.816930  	102.389506 
2737.253809  	102.399358 
2738.690687  	102.416489 
2740.127566  	102.418021 
2741.564445  	102.433993 
2743.001323  	102.426779 
2744.438202  	102.432999 
2745.875081  	102.445025 
2747.311959  	102.417790 
2748.748838  	102.429588 
2750.185717  	102.446269 
2751.622595  	102.430957 
2753.059474  	102.448008 
2754.496352  	102.450093 
2755.933231  	102.435678 
2757.370110  	102.435730 
2758.806988  	102.431838 
2760.243867  	102.457962 
2761.680746  	102.462174 
2763.117624  	102.438247 
2764.554503  	102.456586 
2765.991382  	102.449923 
2767.428260  	102.437448 
2768.865139  	102.457744 
2770.302018  	102.444407 
2771.738896  	102.447869 
2773.175775  	102.461692 
2774.612653  	102.450042 
2776.049532  	102.472401 
2777.486411  	102.474432 
2778.923289  	102.460501 
2780.360168  	102.477035 
2781.797047  	102.459009 
2783.233925  	102.450329 
2784.670804  	102.459289 
2786.107683  	102.436344 
2787.544561  	102.439889 
2788.981440  	102.441440 
2790.418318  	102.428454 
2791.855197  	102.437737 
2793.292076  	102.422791 
2794.728954  	102.421364 
2796.165833  	102.437349 
2797.602712  	102.423498 
2799.039590  	102.424039 
2800.476469  	102.415699 
2801.913348  	102.410112 
2803.350226  	102.430211 
2804.787105  	102.403256 
2806.223984  	102.389412 
2807.660862  	102.409257 
2809.097741  	102.397048 
2810.534619  	102.394296 
2811.971498  	102.374109 
2813.408377  	102.348100 
2814.845255  	102.356754 
2816.282134  	102.327766 
2817.719013  	102.322970 
2819.155891  	102.339404 
2820.592770  	102.288635 
2822.029649  	102.272640 
2823.466527  	102.263455 
2824.903406  	102.219117 
2826.340284  	102.234589 
2827.777163  	102.222893 
2829.214042  	102.176402 
2830.650920  	102.165093 
2832.087799  	102.118495 
2833.524678  	102.075729 
2834.961556  	102.034393 
2836.398435  	101.948373 
2837.835314  	101.884443 
2839.272192  	101.788668 
2840.709071  	101.658338 
2842.145950  	101.550584 
2843.582828  	101.393577 
2845.019707  	101.209647 
2846.456585  	100.990847 
2847.893464  	100.727914 
2849.330343  	100.593162 
2850.767221  	100.585215 
2852.204100  	100.587521 
2853.640979  	100.575050 
2855.077857  	100.514151 
2856.514736  	100.466759 
2857.951615  	100.448314 
2859.388493  	100.388686 
2860.825372  	100.341787 
2862.262250  	100.314619 
2863.699129  	100.287997 
2865.136008  	100.293847 
2866.572886  	100.297782 
2868.009765  	100.310810 
2869.446644  	100.333994 
2870.883522  	100.339254 
2872.320401  	100.377187 
2873.757280  	100.430948 
2875.194158  	100.485083 
2876.631037  	100.550924 
2878.067916  	100.575694 
2879.504794  	100.601430 
2880.941673  	100.639341 
2882.378551  	100.639438 
2883.815430  	100.646503 
2885.252309  	100.636525 
2886.689187  	100.609884 
2888.126066  	100.603656 
2889.562945  	100.542009 
2890.999823  	100.468754 
2892.436702  	100.428533 
2893.873581  	100.356669 
2895.310459  	100.298006 
2896.747338  	100.260849 
2898.184216  	100.230889 
2899.621095  	100.208501 
2901.057974  	100.117713 
2902.494852  	100.032924 
2903.931731  	100.001663 
2905.368610  	99.926451 
2906.805488  	99.841649 
2908.242367  	99.738640 
2909.679246  	99.607112 
2911.116124  	99.509579 
2912.553003  	99.336603 
2913.989882  	99.096280 
2915.426760  	98.919764 
2916.863639  	98.784986 
2918.300517  	98.718664 
2919.737396  	98.713097 
2921.174275  	98.696576 
2922.611153  	98.685903 
2924.048032  	98.644567 
2925.484911  	98.600222 
2926.921789  	98.602897 
2928.358668  	98.574179 
2929.795547  	98.550712 
2931.232425  	98.557267 
2932.669304  	98.531602 
2934.106182  	98.515862 
2935.543061  	98.510192 
2936.979940  	98.510408 
2938.416818  	98.522590 
2939.853697  	98.487459 
2941.290576  	98.463122 
2942.727454  	98.474617 
2944.164333  	98.469311 
2945.601212  	98.483623 
2947.038090  	98.493678 
2948.474969  	98.510694 
2949.911847  	98.574206 
2951.348726  	98.605889 
2952.785605  	98.651904 
2954.222483  	98.752849 
2955.659362  	98.836874 
2957.096241  	98.957613 
2958.533119  	99.109923 
2959.969998  	99.240438 
2961.406877  	99.395152 
2962.843755  	99.555056 
2964.280634  	99.713780 
2965.717513  	99.871233 
2967.154391  	100.003136 
2968.591270  	100.159733 
2970.028148  	100.314042 
2971.465027  	100.458063 
2972.901906  	100.619723 
2974.338784  	100.724172 
2975.775663  	100.839791 
2977.212542  	100.994883 
2978.649420  	101.068801 
2980.086299  	101.145082 
2981.523178  	101.267463 
2982.960056  	101.384306 
2984.396935  	101.527416 
2985.833813  	101.618610 
2987.270692  	101.673445 
2988.707571  	101.778894 
2990.144449  	101.855355 
2991.581328  	101.911088 
2993.018207  	101.962690 
2994.455085  	101.990407 
2995.891964  	102.061875 
2997.328843  	102.129533 
2998.765721  	102.174983 
3000.202600  	102.238246 
3001.639479  	102.276297 
3003.076357  	102.330773 
3004.513236  	102.377100 
3005.950114  	102.383748 
3007.386993  	102.445125 
3008.823872  	102.492913 
3010.260750  	102.513155 
3011.697629  	102.569764 
3013.134508  	102.572678 
3014.571386  	102.570806 
3016.008265  	102.594184 
3017.445144  	102.582321 
3018.882022  	102.612226 
3020.318901  	102.630919 
3021.755779  	102.616099 
3023.192658  	102.645868 
3024.629537  	102.636298 
3026.066415  	102.638818 
3027.503294  	102.692462 
3028.940173  	102.683114 
3030.377051  	102.672824 
3031.813930  	102.660591 
3033.250809  	102.631870 
3034.687687  	102.669651 
3036.124566  	102.679882 
3037.561445  	102.674551 
3038.998323  	102.708139 
3040.435202  	102.693614 
3041.872080  	102.691565 
3043.308959  	102.698213 
3044.745838  	102.680283 
3046.182716  	102.713443 
3047.619595  	102.702645 
3049.056474  	102.666473 
3050.493352  	102.701093 
3051.930231  	102.715843 
3053.367110  	102.744137 
3054.803988  	102.771244 
3056.240867  	102.728861 
3057.677745  	102.717131 
3059.114624  	102.702182 
3060.551503  	102.688404 
3061.988381  	102.742833 
3063.425260  	102.760892 
3064.862139  	102.766399 
3066.299017  	102.765286 
3067.735896  	102.709529 
3069.172775  	102.723304 
3070.609653  	102.755143 
3072.046532  	102.742113 
3073.483411  	102.758765 
3074.920289  	102.745996 
3076.357168  	102.749135 
3077.794046  	102.800398 
3079.230925  	102.782932 
3080.667804  	102.747996 
3082.104682  	102.743557 
3083.541561  	102.763447 
3084.978440  	102.796665 
3086.415318  	102.768012 
3087.852197  	102.767033 
3089.289076  	102.809396 
3090.725954  	102.782551 
3092.162833  	102.773690 
3093.599711  	102.794762 
3095.036590  	102.805258 
3096.473469  	102.828228 
3097.910347  	102.799050 
3099.347226  	102.799517 
3100.784105  	102.835733 
3102.220983  	102.782094 
3103.657862  	102.778901 
3105.094741  	102.832482 
3106.531619  	102.814984 
3107.968498  	102.805401 
3109.405377  	102.805413 
3110.842255  	102.811769 
3112.279134  	102.835125 
3113.716012  	102.814418 
3115.152891  	102.825447 
3116.589770  	102.841547 
3118.026648  	102.810731 
3119.463527  	102.846188 
3120.900406  	102.873618 
3122.337284  	102.838652 
3123.774163  	102.843109 
3125.211042  	102.875830 
3126.647920  	102.892730 
3128.084799  	102.842839 
3129.521677  	102.803819 
3130.958556  	102.875875 
3132.395435  	102.891765 
3133.832313  	102.831959 
3135.269192  	102.820433 
3136.706071  	102.816259 
3138.142949  	102.840678 
3139.579828  	102.859191 
3141.016707  	102.843594 
3142.453585  	102.875752 
3143.890464  	102.881193 
3145.327343  	102.882911 
3146.764221  	102.906818 
3148.201100  	102.854002 
3149.637978  	102.865805 
3151.074857  	102.906132 
3152.511736  	102.830813 
3153.948614  	102.820515 
3155.385493  	102.837214 
3156.822372  	102.799708 
3158.259250  	102.833724 
3159.696129  	102.859913 
3161.133008  	102.859926 
3162.569886  	102.869055 
3164.006765  	102.841529 
3165.443643  	102.861750 
3166.880522  	102.878105 
3168.317401  	102.852902 
3169.754279  	102.860453 
3171.191158  	102.812154 
3172.628037  	102.783769 
3174.064915  	102.842596 
3175.501794  	102.856455 
3176.938673  	102.858131 
3178.375551  	102.831125 
3179.812430  	102.792061 
3181.249309  	102.849702 
3182.686187  	102.860186 
3184.123066  	102.826379 
3185.559944  	102.841355 
3186.996823  	102.818762 
3188.433702  	102.829766 
3189.870580  	102.857059 
3191.307459  	102.827564 
3192.744338  	102.846307 
3194.181216  	102.858041 
3195.618095  	102.844429 
3197.054974  	102.844326 
3198.491852  	102.786549 
3199.928731  	102.777309 
3201.365609  	102.832108 
3202.802488  	102.850317 
3204.239367  	102.852392 
3205.676245  	102.799474 
3207.113124  	102.773249 
3208.550003  	102.813943 
3209.986881  	102.793680 
3211.423760  	102.800632 
3212.860639  	102.816831 
3214.297517  	102.768332 
3215.734396  	102.788720 
3217.171274  	102.808090 
3218.608153  	102.795544 
3220.045032  	102.799845 
3221.481910  	102.740038 
3222.918789  	102.740185 
3224.355668  	102.792727 
3225.792546  	102.781237 
3227.229425  	102.806380 
3228.666304  	102.792265 
3230.103182  	102.763338 
3231.540061  	102.813364 
3232.976940  	102.761890 
3234.413818  	102.723865 
3235.850697  	102.772551 
3237.287575  	102.715401 
3238.724454  	102.685105 
3240.161333  	102.716749 
3241.598211  	102.727339 
3243.035090  	102.781002 
3244.471969  	102.767313 
3245.908847  	102.713694 
3247.345726  	102.715618 
3248.782605  	102.693925 
3250.219483  	102.716361 
3251.656362  	102.742697 
3253.093240  	102.707032 
3254.530119  	102.707287 
3255.966998  	102.692105 
3257.403876  	102.679151 
3258.840755  	102.681474 
3260.277634  	102.638615 
3261.714512  	102.664454 
3263.151391  	102.686784 
3264.588270  	102.653469 
3266.025148  	102.670991 
3267.462027  	102.630213 
3268.898906  	102.616166 
3270.335784  	102.682749 
3271.772663  	102.629504 
3273.209541  	102.596281 
3274.646420  	102.630384 
3276.083299  	102.607210 
3277.520177  	102.624071 
3278.957056  	102.615913 
3280.393935  	102.597853 
3281.830813  	102.634856 
3283.267692  	102.583991 
3284.704571  	102.565550 
3286.141449  	102.609272 
3287.578328  	102.571168 
3289.015206  	102.566739 
3290.452085  	102.575878 
3291.888964  	102.561609 
3293.325842  	102.564287 
3294.762721  	102.517361 
3296.199600  	102.549364 
3297.636478  	102.602469 
3299.073357  	102.526868 
3300.510236  	102.520868 
3301.947114  	102.540100 
3303.383993  	102.506094 
3304.820872  	102.526745 
3306.257750  	102.515007 
3307.694629  	102.522807 
3309.131507  	102.532183 
3310.568386  	102.444951 
3312.005265  	102.469549 
3313.442143  	102.503820 
3314.879022  	102.423757 
3316.315901  	102.433121 
3317.752779  	102.449577 
3319.189658  	102.453348 
3320.626537  	102.510574 
3322.063415  	102.493021 
3323.500294  	102.467992 
3324.937172  	102.444473 
3326.374051  	102.404706 
3327.810930  	102.424402 
3329.247808  	102.368050 
3330.684687  	102.326318 
3332.121566  	102.386431 
3333.558444  	102.365799 
3334.995323  	102.373863 
3336.432202  	102.399853 
3337.869080  	102.331606 
3339.305959  	102.344247 
3340.742838  	102.350754 
3342.179716  	102.300917 
3343.616595  	102.328975 
3345.053473  	102.354684 
3346.490352  	102.388391 
3347.927231  	102.394402 
3349.364109  	102.342646 
3350.800988  	102.371424 
3352.237867  	102.350955 
3353.674745  	102.285593 
3355.111624  	102.299179 
3356.548503  	102.258259 
3357.985381  	102.277328 
3359.422260  	102.356427 
3360.859138  	102.305798 
3362.296017  	102.291116 
3363.732896  	102.295255 
3365.169774  	102.247256 
3366.606653  	102.282315 
3368.043532  	102.291194 
3369.480410  	102.272259 
3370.917289  	102.299605 
3372.354168  	102.308050 
3373.791046  	102.342297 
3375.227925  	102.344303 
3376.664804  	102.342173 
3378.101682  	102.389042 
3379.538561  	102.321939 
3380.975439  	102.302743 
3382.412318  	102.396853 
3383.849197  	102.388916 
3385.286075  	102.400797 
3386.722954  	102.413666 
3388.159833  	102.390591 
3389.596711  	102.504050 
3391.033590  	102.545804 
3392.470469  	102.459932 
3393.907347  	102.450626 
3395.344226  	102.482691 
3396.781104  	102.563466 
3398.217983  	102.614064 
3399.654862  	102.624876 
3401.091740  	102.734752 
3402.528619  	102.765234 
3403.965498  	102.743048 
3405.402376  	102.785021 
3406.839255  	102.736541 
3408.276134  	102.746670 
3409.713012  	102.820872 
3411.149891  	102.793884 
3412.586770  	102.832147 
3414.023648  	102.864178 
3415.460527  	102.827645 
3416.897405  	102.874235 
3418.334284  	102.915190 
3419.771163  	102.932762 
3421.208041  	102.883631 
3422.644920  	102.768301 
3424.081799  	102.833356 
3425.518677  	102.953017 
3426.955556  	102.986771 
3428.392435  	103.017283 
3429.829313  	102.984579 
3431.266192  	103.000196 
3432.703070  	103.054998 
3434.139949  	103.008286 
3435.576828  	103.008865 
3437.013706  	102.993373 
3438.450585  	102.969743 
3439.887464  	103.094928 
3441.324342  	103.105382 
3442.761221  	103.011469 
3444.198100  	103.064854 
3445.634978  	103.123591 
3447.071857  	103.080700 
3448.508736  	102.965426 
3449.945614  	102.961300 
3451.382493  	103.125954 
3452.819371  	103.190597 
3454.256250  	103.163335 
3455.693129  	103.176481 
3457.130007  	103.164831 
3458.566886  	103.198653 
3460.003765  	103.210528 
3461.440643  	103.150256 
3462.877522  	103.143908 
3464.314401  	103.146346 
3465.751279  	103.209736 
3467.188158  	103.301353 
3468.625036  	103.279011 
3470.061915  	103.284146 
3471.498794  	103.293622 
3472.935672  	103.292324 
3474.372551  	103.340748 
3475.809430  	103.237774 
3477.246308  	103.180911 
3478.683187  	103.336397 
3480.120066  	103.378348 
3481.556944  	103.294888 
3482.993823  	103.201059 
3484.430701  	103.204088 
3485.867580  	103.384725 
3487.304459  	103.428009 
3488.741337  	103.328564 
3490.178216  	103.328636 
3491.615095  	103.333969 
3493.051973  	103.389245 
3494.488852  	103.400570 
3495.925731  	103.283101 
3497.362609  	103.284103 
3498.799488  	103.305132 
3500.236367  	103.340982 
3501.673245  	103.463668 
3503.110124  	103.299537 
3504.547002  	103.030713 
3505.983881  	103.149630 
3507.420760  	103.437473 
3508.857638  	103.561195 
3510.294517  	103.387294 
3511.731396  	103.260606 
3513.168274  	103.358337 
3514.605153  	103.386060 
3516.042032  	103.410711 
3517.478910  	103.441452 
3518.915789  	103.396300 
3520.352667  	103.530165 
3521.789546  	103.607702 
3523.226425  	103.386500 
3524.663303  	103.201225 
3526.100182  	103.169841 
3527.537061  	103.286672 
3528.973939  	103.425859 
3530.410818  	103.354523 
3531.847697  	103.356490 
3533.284575  	103.481672 
3534.721454  	103.525944 
3536.158333  	103.478496 
3537.595211  	103.345537 
3539.032090  	103.394835 
3540.468968  	103.593789 
3541.905847  	103.638456 
3543.342726  	103.667638 
3544.779604  	103.592541 
3546.216483  	103.234659 
3547.653362  	103.038789 
3549.090240  	103.214578 
3550.527119  	103.601109 
3551.963998  	103.790651 
3553.400876  	103.421868 
3554.837755  	103.212584 
3556.274633  	103.393676 
3557.711512  	103.519707 
3559.148391  	103.573238 
3560.585269  	103.480245 
3562.022148  	103.351837 
3563.459027  	103.539557 
3564.895905  	103.812945 
3566.332784  	103.726016 
3567.769663  	102.894847 
3569.206541  	102.353302 
3570.643420  	102.890836 
3572.080299  	103.523752 
3573.517177  	103.705496 
3574.954056  	103.658156 
3576.390934  	103.565912 
3577.827813  	103.580823 
3579.264692  	103.652421 
3580.701570  	103.542904 
3582.138449  	103.393760 
3583.575328  	103.426687 
3585.012206  	103.757556 
3586.449085  	104.073203 
3587.885964  	103.460255 
3589.322842  	102.580351 
3590.759721  	102.835213 
3592.196599  	103.455676 
3593.633478  	103.768562 
3595.070357  	103.449291 
3596.507235  	103.121516 
3597.944114  	103.338584 
3599.380993  	103.561715 
3600.817871  	103.460757 
3602.254750  	103.173431 
3603.691629  	103.091604 
3605.128507  	103.504556 
3606.565386  	103.906586 
3608.002265  	103.613381 
3609.439143  	103.008939 
3610.876022  	103.073834 
3612.312900  	103.595212 
3613.749779  	103.589113 
3615.186658  	102.944001 
3616.623536  	103.059503 
3618.060415  	103.544244 
3619.497294  	103.228311 
3620.934172  	102.663540 
3622.371051  	102.750575 
3623.807930  	102.998281 
3625.244808  	103.287576 
3626.681687  	103.819271 
3628.118565  	104.414946 
3629.555444  	103.573441 
3630.992323  	102.343655 
3632.429201  	102.994009 
3633.866080  	103.603400 
3635.302959  	103.403438 
3636.739837  	103.236460 
3638.176716  	103.415785 
3639.613595  	103.659670 
3641.050473  	103.665757 
3642.487352  	103.392480 
3643.924231  	103.339168 
3645.361109  	103.608034 
3646.797988  	103.935004 
3648.234866  	104.198270 
3649.671745  	103.611951 
3651.108624  	102.284428 
3652.545502  	102.115108 
3653.982381  	103.038425 
3655.419260  	103.851931 
3656.856138  	103.582278 
3658.293017  	102.919996 
3659.729896  	103.238952 
3661.166774  	103.634511 
3662.603653  	103.560069 
3664.040531  	103.277077 
3665.477410  	103.088871 
3666.914289  	103.598381 
3668.351167  	104.529876 
3669.788046  	104.412857 
3671.224925  	102.738137 
3672.661803  	102.837530 
3674.098682  	104.329395 
3675.535561  	105.406821 
3676.972439  	102.662043 
3678.409318  	102.050139 
3679.846197  	102.882565 
3681.283075  	103.209339 
3682.719954  	103.033343 
3684.156832  	103.024266 
3685.593711  	103.314718 
3687.030590  	103.879538 
3688.467468  	104.249362 
3689.904347  	103.346727 
3691.341226  	102.161558 
3692.778104  	101.986546 
3694.214983  	102.635802 
3695.651862  	103.211222 
3697.088740  	103.322266 
3698.525619  	103.351293 
3699.962497  	103.707099 
3701.399376  	103.933277 
3702.836255  	103.232330 
3704.273133  	102.725290 
3705.710012  	103.237625 
3707.146891  	103.937883 
3708.583769  	104.336898 
3710.020648  	104.663761 
3711.457527  	104.395366 
3712.894405  	103.116838 
3714.331284  	102.516434 
3715.768163  	102.971386 
3717.205041  	103.547507 
3718.641920  	103.754959 
3720.078798  	103.887281 
3721.515677  	104.037244 
3722.952556  	103.740645 
3724.389434  	103.400658 
3725.826313  	103.180696 
3727.263192  	102.813147 
3728.700070  	103.076699 
3730.136949  	103.838969 
3731.573828  	104.596810 
3733.010706  	104.777219 
3734.447585  	104.083124 
3735.884463  	103.447681 
3737.321342  	102.889157 
3738.758221  	102.511266 
3740.195099  	102.764086 
3741.631978  	103.827520 
3743.068857  	105.060392 
3744.505735  	105.587641 
3745.942614  	103.203890 
3747.379493  	102.828509 
3748.816371  	104.016211 
3750.253250  	104.663115 
3751.690129  	103.582024 
3753.127007  	102.965093 
3754.563886  	103.283769 
3756.000764  	103.893845 
3757.437643  	104.371468 
3758.874522  	104.182131 
3760.311400  	103.486750 
3761.748279  	103.341809 
3763.185158  	104.125207 
3764.622036  	104.696499 
3766.058915  	104.218269 
3767.495794  	103.904419 
3768.932672  	104.338928 
3770.369551  	104.357190 
3771.806429  	103.787087 
3773.243308  	103.658565 
3774.680187  	103.873186 
3776.117065  	104.174349 
3777.553944  	104.480059 
3778.990823  	104.603951 
3780.427701  	104.010802 
3781.864580  	103.573727 
3783.301459  	103.976207 
3784.738337  	104.288175 
3786.175216  	103.884033 
3787.612094  	103.643054 
3789.048973  	103.954804 
3790.485852  	104.226203 
3791.922730  	104.023148 
3793.359609  	103.985433 
3794.796488  	104.431394 
3796.233366  	104.337358 
3797.670245  	103.588805 
3799.107124  	104.020813 
3800.544002  	105.142564 
3801.980881  	104.722627 
3803.417760  	102.864320 
3804.854638  	103.485429 
3806.291517  	104.725690 
3807.728395  	104.305065 
3809.165274  	103.230461 
3810.602153  	103.468157 
3812.039031  	103.879372 
3813.475910  	104.369092 
3814.912789  	104.985877 
3816.349667  	104.508075 
3817.786546  	103.334513 
3819.223425  	104.016723 
3820.660303  	105.209044 
3822.097182  	103.960000 
3823.534060  	102.606773 
3824.970939  	103.581210 
3826.407818  	104.557914 
3827.844696  	104.111706 
3829.281575  	103.759056 
3830.718454  	104.099694 
3832.155332  	104.164746 
3833.592211  	103.828406 
3835.029090  	103.956500 
3836.465968  	104.675787 
3837.902847  	104.838413 
3839.339726  	103.815177 
3840.776604  	103.349077 
3842.213483  	103.567727 
3843.650361  	103.472616 
3845.087240  	103.309617 
3846.524119  	103.577457 
3847.960997  	104.036569 
3849.397876  	104.369041 
3850.834755  	104.746434 
3852.271633  	105.582900 
3853.708512  	105.491496 
3855.145391  	102.734925 
3856.582269  	102.548441 
3858.019148  	103.296666 
3859.456026  	103.788233 
3860.892905  	104.039357 
3862.329784  	104.464406 
3863.766662  	104.698609 
3865.203541  	103.870954 
3866.640420  	103.247728 
3868.077298  	104.003395 
3869.514177  	104.452417 
3870.951056  	103.430381 
3872.387934  	103.421331 
3873.824813  	104.213124 
3875.261692  	104.061481 
3876.698570  	103.474931 
3878.135449  	104.012553 
3879.572327  	104.799587 
3881.009206  	103.956308 
3882.446085  	103.135789 
3883.882963  	104.133477 
3885.319842  	104.888049 
3886.756721  	103.838918 
3888.193599  	103.359041 
3889.630478  	104.252698 
3891.067357  	104.997912 
3892.504235  	104.012819 
3893.941114  	103.167494 
3895.377992  	103.620581 
3896.814871  	104.240789 
3898.251750  	104.498159 
3899.688628  	104.346870 
3901.125507  	104.031686 
3902.562386  	104.203746 
3903.999264  	104.273882 
3905.436143  	103.635683 
3906.873022  	103.291043 
3908.309900  	103.580069 
3909.746779  	104.091438 
3911.183658  	104.303332 
3912.620536  	104.168887 
3914.057415  	104.253407 
3915.494293  	104.428959 
3916.931172  	104.336968 
3918.368051  	104.082712 
3919.804929  	103.873841 
3921.241808  	103.910791 
3922.678687  	104.199964 
3924.115565  	104.305325 
3925.552444  	104.111465 
3926.989323  	103.964400 
3928.426201  	104.074622 
3929.863080  	104.307512 
3931.299958  	104.261084 
3932.736837  	103.906622 
3934.173716  	103.757027 
3935.610594  	104.005936 
3937.047473  	104.266782 
3938.484352  	104.211445 
3939.921230  	104.159686 
3941.358109  	104.307261 
3942.794988  	104.225482 
3944.231866  	103.966322 
3945.668745  	104.026656 
3947.105624  	104.183092 
3948.542502  	104.183260 
3949.979381  	104.060059 
3951.416259  	104.045139 
3952.853138  	104.208852 
3954.290017  	104.271494 
3955.726895  	104.245039 
3957.163774  	104.216315 
3958.600653  	104.176037 
3960.037531  	104.176242 
3961.474410  	104.237039 
3962.911289  	104.140816 
3964.348167  	104.120895 
3965.785046  	104.245926 
3967.221924  	104.338664 
3968.658803  	104.366240 
3970.095682  	104.306084 
3971.532560  	104.275458 
3972.969439  	104.291351 
3974.406318  	104.235614 
3975.843196  	104.148911 
3977.280075  	104.078036 
3978.716954  	104.148831 
3980.153832  	104.298479 
3981.590711  	104.293465 
3983.027590  	104.315498 
3984.464468  	104.378448 
3985.901347  	104.315109 
3987.338225  	104.337991 
3988.775104  	104.380552 
3990.211983  	104.306175 
3991.648861  	104.289519 
3993.085740  	104.304304 
3994.522619  	104.331300 
3995.959497  	104.339956 
3997.396376  	104.274781 
3998.833255  	104.323043 
4000.270133  	104.399691 