x               y
399.452262  	93.248009 
400.889141  	93.947490 
402.326019  	94.442089 
403.762898  	93.766436 
405.199776  	94.683134 
406.636655  	93.628998 
408.073534  	93.118921 
409.510412  	93.870877 
410.947291  	93.189878 
412.384170  	93.880554 
413.821048  	94.254902 
415.257927  	93.445500 
416.694806  	94.026930 
418.131684  	93.065039 
419.568563  	93.156295 
421.005441  	95.007555 
422.442320  	93.345180 
423.879199  	92.285759 
425.316077  	93.167758 
426.752956  	93.471815 
428.189835  	93.870115 
429.626713  	93.379209 
431.063592  	93.420808 
432.500471  	94.257665 
433.937349  	93.123685 
435.374228  	92.794025 
436.811106  	93.798711 
438.247985  	93.617274 
439.684864  	94.028852 
441.121742  	94.069649 
442.558621  	93.443058 
443.995500  	93.831415 
445.432378  	93.361108 
446.869257  	93.261567 
448.306136  	94.399502 
449.743014  	94.418325 
451.179893  	93.844874 
452.616772  	93.181214 
454.053650  	93.006212 
455.490529  	93.239482 
456.927407  	92.607473 
458.364286  	93.053308 
459.801165  	93.664378 
461.238043  	92.623913 
462.674922  	92.449750 
464.111801  	92.978866 
465.548679  	92.677815 
466.985558  	92.495994 
468.422437  	92.334491 
469.859315  	92.302441 
471.296194  	92.320554 
472.733072  	92.210987 
474.169951  	92.763245 
475.606830  	92.819163 
477.043708  	92.615840 
478.480587  	93.011857 
479.917466  	92.858872 
481.354344  	92.710312 
482.791223  	92.974321 
484.228102  	92.671117 
485.664980  	92.615769 
487.101859  	93.026653 
488.538738  	93.489894 
489.975616  	93.763853 
491.412495  	93.287509 
492.849373  	93.239479 
494.286252  	93.542477 
495.723131  	93.242467 
497.160009  	93.376288 
498.596888  	93.445579 
500.033767  	92.928734 
501.470645  	92.769242 
502.907524  	92.591077 
504.344403  	92.541978 
505.781281  	92.684842 
507.218160  	92.502724 
508.655038  	92.664377 
510.091917  	92.483385 
511.528796  	91.823107 
512.965674  	91.857598 
514.402553  	91.489333 
515.839432  	90.628031 
517.276310  	90.322770 
518.713189  	89.864422 
520.150068  	89.498139 
521.586946  	89.164841 
523.023825  	88.329802 
524.460704  	87.780113 
525.897582  	87.247006 
527.334461  	86.664120 
528.771339  	86.561291 
530.208218  	86.145249 
531.645097  	85.705611 
533.081975  	85.512372 
534.518854  	84.888631 
535.955733  	84.468256 
537.392611  	84.316132 
538.829490  	83.891632 
540.266369  	83.574444 
541.703247  	83.316475 
543.140126  	83.228208 
544.577004  	83.310149 
546.013883  	83.131829 
547.450762  	83.100014 
548.887640  	83.188890 
550.324519  	83.250784 
551.761398  	83.690510 
553.198276  	84.065291 
554.635155  	84.236133 
556.072034  	84.466898 
557.508912  	84.595137 
558.945791  	84.832559 
560.382670  	85.064201 
561.819548  	85.120807 
563.256427  	85.360020 
564.693305  	85.596813 
566.130184  	85.798390 
567.567063  	86.119242 
569.003941  	86.303459 
570.440820  	86.542154 
571.877699  	86.926516 
573.314577  	87.218487 
574.751456  	87.413904 
576.188335  	87.618720 
577.625213  	88.104746 
579.062092  	88.606143 
580.498970  	88.871119 
581.935849  	89.332301 
583.372728  	89.757960 
584.809606  	89.956793 
586.246485  	90.323733 
587.683364  	90.574240 
589.120242  	90.643786 
590.557121  	90.743167 
591.994000  	90.782398 
593.430878  	91.022329 
594.867757  	91.218739 
596.304636  	91.160290 
597.741514  	91.310550 
599.178393  	91.475342 
600.615271  	91.592091 
602.052150  	91.891798 
603.489029  	92.020324 
604.925907  	92.070598 
606.362786  	92.070821 
607.799665  	91.916372 
609.236543  	92.028840 
610.673422  	92.114562 
612.110301  	91.988584 
613.547179  	92.014079 
614.984058  	91.983917 
616.420936  	91.850473 
617.857815  	91.726920 
619.294694  	91.468917 
620.731572  	91.326430 
622.168451  	91.442862 
623.605330  	91.712252 
625.042208  	91.961165 
626.479087  	91.922456 
627.915966  	91.961295 
629.352844  	92.261288 
630.789723  	92.453175 
632.226602  	92.493894 
633.663480  	92.480982 
635.100359  	92.450806 
636.537237  	92.508161 
637.974116  	92.515319 
639.410995  	92.516474 
640.847873  	92.572830 
642.284752  	92.580723 
643.721631  	92.455232 
645.158509  	92.271459 
646.595388  	92.045526 
648.032267  	91.925272 
649.469145  	91.739587 
650.906024  	91.580168 
652.342902  	91.487399 
653.779781  	91.297330 
655.216660  	91.095250 
656.653538  	90.898256 
658.090417  	90.668657 
659.527296  	90.487781 
660.964174  	90.240559 
662.401053  	89.983761 
663.837932  	89.750561 
665.274810  	89.501853 
666.711689  	89.290823 
668.148568  	88.512522 
669.585446  	87.698250 
671.022325  	87.361940 
672.459203  	87.031005 
673.896082  	86.498874 
675.332961  	86.002292 
676.769839  	85.356337 
678.206718  	84.724860 
679.643597  	84.106422 
681.080475  	83.410424 
682.517354  	82.649849 
683.954233  	81.791091 
685.391111  	81.139257 
686.827990  	79.725982 
688.264868  	77.671112 
689.701747  	74.914086 
691.138626  	71.017031 
692.575504  	64.824076 
694.012383  	56.034733 
695.449262  	45.231345 
696.886140  	35.680994 
698.323019  	30.959177 
699.759898  	31.052861 
701.196776  	34.725230 
702.633655  	40.025633 
704.070533  	46.088285 
705.507412  	52.721989 
706.944291  	59.329559 
708.381169  	65.958088 
709.818048  	72.319028 
711.254927  	77.810201 
712.691805  	82.463159 
714.128684  	85.829717 
715.565563  	87.924634 
717.002441  	89.324841 
718.439320  	89.653207 
719.876199  	89.810766 
721.313077  	90.027190 
722.749956  	90.236825 
724.186834  	90.358619 
725.623713  	90.366644 
727.060592  	90.187876 
728.497470  	89.928964 
729.934349  	89.782892 
731.371228  	89.515687 
732.808106  	89.083767 
734.244985  	88.405315 
735.681864  	87.416771 
737.118742  	86.411453 
738.555621  	85.473818 
739.992499  	84.649107 
741.429378  	83.958768 
742.866257  	83.271153 
744.303135  	82.464374 
745.740014  	81.342212 
747.176893  	80.010038 
748.613771  	78.592161 
750.050650  	76.898184 
751.487529  	75.051864 
752.924407  	73.076830 
754.361286  	70.937234 
755.798165  	68.970133 
757.235043  	67.257698 
758.671922  	66.080944 
760.108800  	65.803845 
761.545679  	66.302816 
762.982558  	67.582478 
764.419436  	69.500361 
765.856315  	71.717613 
767.293194  	74.127984 
768.730072  	76.526664 
770.166951  	78.710078 
771.603830  	80.705783 
773.040708  	82.503113 
774.477587  	84.141383 
775.914465  	85.674640 
777.351344  	87.032908 
778.788223  	88.305690 
780.225101  	89.478987 
781.661980  	90.401460 
783.098859  	91.192809 
784.535737  	91.858627 
785.972616  	92.384070 
787.409495  	92.911071 
788.846373  	93.304881 
790.283252  	93.603336 
791.720131  	93.954855 
793.157009  	94.164679 
794.593888  	94.285336 
796.030766  	94.464972 
797.467645  	94.631383 
798.904524  	94.786473 
800.341402  	94.873393 
801.778281  	94.930246 
803.215160  	95.022751 
804.652038  	95.035791 
806.088917  	95.068089 
807.525796  	95.151949 
808.962674  	95.164347 
810.399553  	95.204033 
811.836431  	95.242632 
813.273310  	95.223017 
814.710189  	95.243776 
816.147067  	95.305201 
817.583946  	95.428256 
819.020825  	95.518830 
820.457703  	95.503576 
821.894582  	95.549073 
823.331461  	95.597228 
824.768339  	95.612959 
826.205218  	95.705928 
827.642097  	95.720456 
829.078975  	95.660503 
830.515854  	95.649206 
831.952732  	95.621083 
833.389611  	95.595820 
834.826490  	95.519467 
836.263368  	95.362056 
837.700247  	95.197600 
839.137126  	94.936581 
840.574004  	94.687147 
842.010883  	94.579078 
843.447762  	94.467500 
844.884640  	94.366620 
846.321519  	94.316209 
847.758397  	94.301469 
849.195276  	94.366078 
850.632155  	94.422521 
852.069033  	94.497743 
853.505912  	94.624331 
854.942791  	94.663921 
856.379669  	94.714750 
857.816548  	94.818561 
859.253427  	94.861199 
860.690305  	94.969605 
862.127184  	95.147748 
863.564063  	95.283470 
865.000941  	95.433863 
866.437820  	95.554637 
867.874698  	95.604665 
869.311577  	95.637515 
870.748456  	95.641505 
872.185334  	95.655108 
873.622213  	95.701307 
875.059092  	95.723509 
876.495970  	95.693415 
877.932849  	95.640901 
879.369728  	95.627854 
880.806606  	95.610486 
882.243485  	95.544105 
883.680363  	95.495707 
885.117242  	95.465682 
886.554121  	95.428162 
887.990999  	95.368172 
889.427878  	95.277716 
890.864757  	95.194078 
892.301635  	95.057657 
893.738514  	94.868967 
895.175393  	94.682757 
896.612271  	94.361383 
898.049150  	93.873335 
899.486029  	93.258881 
900.922907  	92.401040 
902.359786  	91.208879 
903.796664  	89.540518 
905.233543  	87.453423 
906.670422  	85.317046 
908.107300  	83.431048 
909.544179  	82.191448 
910.981058  	81.856120 
912.417936  	82.381180 
913.854815  	83.626329 
915.291694  	85.273767 
916.728572  	87.038094 
918.165451  	88.756394 
919.602329  	90.259981 
921.039208  	91.491750 
922.476087  	92.478207 
923.912965  	93.178338 
925.349844  	93.662878 
926.786723  	94.015697 
928.223601  	94.225674 
929.660480  	94.367256 
931.097359  	94.422338 
932.534237  	94.386239 
933.971116  	94.371210 
935.407995  	94.297415 
936.844873  	94.135179 
938.281752  	93.985550 
939.718630  	93.817632 
941.155509  	93.614911 
942.592388  	93.364148 
944.029266  	93.067513 
945.466145  	92.798532 
946.903024  	92.510465 
948.339902  	92.129259 
949.776781  	91.614178 
951.213660  	90.921418 
952.650538  	90.033794 
954.087417  	88.834869 
955.524295  	87.241149 
956.961174  	85.179571 
958.398053  	82.538014 
959.834931  	79.478729 
961.271810  	76.267579 
962.708689  	73.407744 
964.145567  	71.503600 
965.582446  	70.691361 
967.019325  	71.090838 
968.456203  	72.547541 
969.893082  	74.611968 
971.329961  	77.082588 
972.766839  	79.669859 
974.203718  	82.046030 
975.640596  	84.127802 
977.077475  	85.866205 
978.514354  	87.214068 
979.951232  	88.248819 
981.388111  	89.000532 
982.824990  	89.501936 
984.261868  	89.857164 
985.698747  	90.063968 
987.135626  	90.110169 
988.572504  	89.982400 
990.009383  	89.687159 
991.446261  	89.366911 
992.883140  	89.125206 
994.320019  	89.069324 
995.756897  	89.285175 
997.193776  	89.688994 
998.630655  	90.130895 
1000.067533  	90.385025 
1001.504412  	90.363388 
1002.941291  	90.333650 
1004.378169  	90.428370 
1005.815048  	90.525947 
1007.251926  	90.603453 
1008.688805  	90.661378 
1010.125684  	90.682882 
1011.562562  	90.689688 
1012.999441  	90.683489 
1014.436320  	90.664930 
1015.873198  	90.628356 
1017.310077  	90.590585 
1018.746956  	90.526029 
1020.183834  	90.361566 
1021.620713  	90.138787 
1023.057592  	89.839059 
1024.494470  	89.358640 
1025.931349  	88.734759 
1027.368227  	88.084541 
1028.805106  	87.697421 
1030.241985  	87.859026 
1031.678863  	88.526056 
1033.115742  	89.509408 
1034.552621  	90.539118 
1035.989499  	91.344031 
1037.426378  	91.895277 
1038.863257  	92.260180 
1040.300135  	92.478898 
1041.737014  	92.631407 
1043.173892  	92.684782 
1044.610771  	92.667303 
1046.047650  	92.683080 
1047.484528  	92.668984 
1048.921407  	92.642395 
1050.358286  	92.654836 
1051.795164  	92.630851 
1053.232043  	92.575923 
1054.668922  	92.482632 
1056.105800  	92.343834 
1057.542679  	92.223456 
1058.979558  	92.085637 
1060.416436  	91.904536 
1061.853315  	91.674528 
1063.290193  	91.385169 
1064.727072  	91.105357 
1066.163951  	90.817093 
1067.600829  	90.520840 
1069.037708  	90.294764 
1070.474587  	90.140397 
1071.911465  	90.119272 
1073.348344  	90.270376 
1074.785223  	90.528728 
1076.222101  	90.859586 
1077.658980  	91.191528 
1079.095858  	91.493100 
1080.532737  	91.829802 
1081.969616  	92.155117 
1083.406494  	92.438181 
1084.843373  	92.727534 
1086.280252  	92.975701 
1087.717130  	93.182090 
1089.154009  	93.369338 
1090.590888  	93.496385 
1092.027766  	93.584631 
1093.464645  	93.629569 
1094.901524  	93.643813 
1096.338402  	93.675485 
1097.775281  	93.677078 
1099.212159  	93.671914 
1100.649038  	93.717888 
1102.085917  	93.771278 
1103.522795  	93.799709 
1104.959674  	93.799659 
1106.396553  	93.819060 
1107.833431  	93.850936 
1109.270310  	93.790095 
1110.707189  	93.702334 
1112.144067  	93.668476 
1113.580946  	93.623474 
1115.017824  	93.581360 
1116.454703  	93.562071 
1117.891582  	93.560885 
1119.328460  	93.604566 
1120.765339  	93.662578 
1122.202218  	93.752948 
1123.639096  	93.893016 
1125.075975  	94.005600 
1126.512854  	94.093262 
1127.949732  	94.178959 
1129.386611  	94.238460 
1130.823490  	94.291356 
1132.260368  	94.334077 
1133.697247  	94.340035 
1135.134125  	94.283581 
1136.571004  	94.187649 
1138.007883  	94.139898 
1139.444761  	94.099067 
1140.881640  	94.008869 
1142.318519  	93.929150 
1143.755397  	93.839646 
1145.192276  	93.692110 
1146.629155  	93.498312 
1148.066033  	93.266027 
1149.502912  	92.961841 
1150.939790  	92.489399 
1152.376669  	91.895461 
1153.813548  	91.351128 
1155.250426  	90.951183 
1156.687305  	90.804718 
1158.124184  	90.919698 
1159.561062  	91.160582 
1160.997941  	91.427471 
1162.434820  	91.651121 
1163.871698  	91.784120 
1165.308577  	91.844109 
1166.745456  	91.867954 
1168.182334  	91.897172 
1169.619213  	91.925888 
1171.056091  	91.932317 
1172.492970  	91.928433 
1173.929849  	91.891776 
1175.366727  	91.839752 
1176.803606  	91.778223 
1178.240485  	91.634495 
1179.677363  	91.458273 
1181.114242  	91.332487 
1182.551121  	91.299875 
1183.987999  	91.448458 
1185.424878  	91.730710 
1186.861756  	92.062183 
1188.298635  	92.432587 
1189.735514  	92.729267 
1191.172392  	92.896111 
1192.609271  	93.005322 
1194.046150  	93.042404 
1195.483028  	93.022964 
1196.919907  	92.998775 
1198.356786  	92.974380 
1199.793664  	92.980607 
1201.230543  	92.983565 
1202.667422  	92.971389 
1204.104300  	93.003678 
1205.541179  	93.039211 
1206.978057  	93.056593 
1208.414936  	93.086113 
1209.851815  	93.095764 
1211.288693  	93.085979 
1212.725572  	93.087610 
1214.162451  	93.126528 
1215.599329  	93.178986 
1217.036208  	93.170375 
1218.473087  	93.137139 
1219.909965  	93.107687 
1221.346844  	93.021321 
1222.783722  	92.907087 
1224.220601  	92.790120 
1225.657480  	92.679507 
1227.094358  	92.595372 
1228.531237  	92.462743 
1229.968116  	92.270323 
1231.404994  	92.066276 
1232.841873  	91.861271 
1234.278752  	91.703127 
1235.715630  	91.559329 
1237.152509  	91.373614 
1238.589388  	91.184591 
1240.026266  	91.008805 
1241.463145  	90.842121 
1242.900023  	90.652852 
1244.336902  	90.444741 
1245.773781  	90.256380 
1247.210659  	89.992057 
1248.647538  	89.678404 
1250.084417  	89.504742 
1251.521295  	89.466564 
1252.958174  	89.483180 
1254.395053  	89.512511 
1255.831931  	89.536596 
1257.268810  	89.595101 
1258.705688  	89.653327 
1260.142567  	89.724053 
1261.579446  	89.918856 
1263.016324  	90.186201 
1264.453203  	90.444579 
1265.890082  	90.669210 
1267.326960  	90.797573 
1268.763839  	90.886807 
1270.200718  	91.009120 
1271.637596  	91.148949 
1273.074475  	91.325585 
1274.511353  	91.465728 
1275.948232  	91.522216 
1277.385111  	91.572423 
1278.821989  	91.578963 
1280.258868  	91.542005 
1281.695747  	91.527024 
1283.132625  	91.496376 
1284.569504  	91.472467 
1286.006383  	91.422690 
1287.443261  	91.303128 
1288.880140  	91.276928 
1290.317019  	91.323074 
1291.753897  	91.304049 
1293.190776  	91.308483 
1294.627654  	91.315467 
1296.064533  	91.270669 
1297.501412  	91.301770 
1298.938290  	91.390518 
1300.375169  	91.442390 
1301.812048  	91.447875 
1303.248926  	91.448528 
1304.685805  	91.464859 
1306.122684  	91.491696 
1307.559562  	91.517955 
1308.996441  	91.615392 
1310.433319  	91.675075 
1311.870198  	91.594248 
1313.307077  	91.527553 
1314.743955  	91.588774 
1316.180834  	91.644509 
1317.617713  	91.618769 
1319.054591  	91.631418 
1320.491470  	91.778754 
1321.928349  	91.973765 
1323.365227  	92.130926 
1324.802106  	92.217561 
1326.238985  	92.258952 
1327.675863  	92.305320 
1329.112742  	92.316199 
1330.549620  	92.324027 
1331.986499  	92.405242 
1333.423378  	92.464087 
1334.860256  	92.423620 
1336.297135  	92.325914 
1337.734014  	92.089708 
1339.170892  	91.744302 
1340.607771  	91.710218 
1342.044650  	91.979846 
1343.481528  	92.054479 
1344.918407  	91.949605 
1346.355285  	91.909640 
1347.792164  	91.877308 
1349.229043  	91.747033 
1350.665921  	91.683304 
1352.102800  	91.605158 
1353.539679  	91.486260 
1354.976557  	91.455204 
1356.413436  	91.494974 
1357.850315  	91.574534 
1359.287193  	91.637429 
1360.724072  	91.503994 
1362.160951  	91.110669 
1363.597829  	90.930639 
1365.034708  	91.237919 
1366.471586  	91.430249 
1367.908465  	91.311216 
1369.345344  	91.250723 
1370.782222  	91.442549 
1372.219101  	91.532290 
1373.655980  	91.358499 
1375.092858  	91.286644 
1376.529737  	91.499794 
1377.966616  	91.709385 
1379.403494  	92.058900 
1380.840373  	92.530997 
1382.277251  	92.866493 
1383.714130  	93.172627 
1385.151009  	93.381435 
1386.587887  	93.451083 
1388.024766  	93.612308 
1389.461645  	93.897258 
1390.898523  	94.128286 
1392.335402  	94.285113 
1393.772281  	94.336812 
1395.209159  	94.168655 
1396.646038  	94.196354 
1398.082917  	94.257514 
1399.519795  	94.238931 
1400.956674  	94.368478 
1402.393552  	94.441146 
1403.830431  	94.378438 
1405.267310  	94.296972 
1406.704188  	94.215328 
1408.141067  	94.011575 
1409.577946  	93.640892 
1411.014824  	93.292960 
1412.451703  	93.312310 
1413.888582  	93.574401 
1415.325460  	93.156460 
1416.762339  	92.739469 
1418.199217  	92.443519 
1419.636096  	92.415580 
1421.072975  	92.633206 
1422.509853  	92.466243 
1423.946732  	92.344584 
1425.383611  	92.023655 
1426.820489  	91.764392 
1428.257368  	91.097405 
1429.694247  	90.113545 
1431.131125  	89.060680 
1432.568004  	88.012714 
1434.004883  	87.057239 
1435.441761  	86.313832 
1436.878640  	85.283604 
1438.315518  	84.406516 
1439.752397  	83.673109 
1441.189276  	82.432685 
1442.626154  	81.520706 
1444.063033  	80.794770 
1445.499912  	79.309425 
1446.936790  	77.964655 
1448.373669  	76.112457 
1449.810548  	74.628692 
1451.247426  	72.961736 
1452.684305  	71.305941 
1454.121183  	72.170242 
1455.558062  	74.721444 
1456.994941  	80.305469 
1458.431819  	86.012201 
1459.868698  	88.173393 
1461.305577  	89.913155 
1462.742455  	90.741965 
1464.179334  	91.554226 
1465.616213  	92.340613 
1467.053091  	92.587319 
1468.489970  	92.666982 
1469.926849  	93.048033 
1471.363727  	93.040453 
1472.800606  	92.989026 
1474.237484  	93.416877 
1475.674363  	93.790783 
1477.111242  	94.104360 
1478.548120  	94.337804 
1479.984999  	94.495883 
1481.421878  	94.568032 
1482.858756  	94.698164 
1484.295635  	94.677348 
1485.732514  	93.887601 
1487.169392  	92.696974 
1488.606271  	90.913858 
1490.043149  	88.115694 
1491.480028  	83.946565 
1492.916907  	80.373711 
1494.353785  	79.035907 
1495.790664  	81.261570 
1497.227543  	86.441332 
1498.664421  	90.432866 
1500.101300  	93.075837 
1501.538179  	94.264713 
1502.975057  	94.933442 
1504.411936  	96.003638 
1505.848815  	96.593970 
1507.285693  	94.396360 
1508.722572  	94.007831 
1510.159450  	94.411048 
1511.596329  	94.890445 
1513.033208  	95.286926 
1514.470086  	95.542851 
1515.906965  	95.630217 
1517.343844  	95.635693 
1518.780722  	95.926238 
1520.217601  	95.943290 
1521.654480  	95.448896 
1523.091358  	95.412100 
1524.528237  	95.430812 
1525.965115  	95.712536 
1527.401994  	95.655272 
1528.838873  	95.529873 
1530.275751  	95.826974 
1531.712630  	95.891147 
1533.149509  	95.794098 
1534.586387  	95.676060 
1536.023266  	95.645133 
1537.460145  	96.035594 
1538.897023  	96.778213 
1540.333902  	95.808103 
1541.770780  	95.606424 
1543.207659  	95.470072 
1544.644538  	95.054859 
1546.081416  	95.251592 
1547.518295  	95.463208 
1548.955174  	95.377574 
1550.392052  	95.239913 
1551.828931  	95.420119 
1553.265810  	95.647109 
1554.702688  	95.538304 
1556.139567  	95.474279 
1557.576446  	95.966624 
1559.013324  	95.348188 
1560.450203  	95.037822 
1561.887081  	95.134342 
1563.323960  	95.119564 
1564.760839  	94.919666 
1566.197717  	94.610774 
1567.634596  	94.912574 
1569.071475  	95.645468 
1570.508353  	95.805508 
1571.945232  	95.693208 
1573.382111  	96.003906 
1574.818989  	96.153734 
1576.255868  	96.019730 
1577.692746  	95.607465 
1579.129625  	95.374646 
1580.566504  	95.077560 
1582.003382  	94.658864 
1583.440261  	94.316592 
1584.877140  	94.544475 
1586.314018  	95.092990 
1587.750897  	95.653933 
1589.187776  	95.351820 
1590.624654  	95.029399 
1592.061533  	94.934875 
1593.498412  	94.690171 
1594.935290  	94.236091 
1596.372169  	93.744403 
1597.809047  	93.267953 
1599.245926  	92.867005 
1600.682805  	91.732739 
1602.119683  	90.967388 
1603.556562  	91.143972 
1604.993441  	92.021997 
1606.430319  	93.045656 
1607.867198  	94.033668 
1609.304077  	94.786871 
1610.740955  	95.258372 
1612.177834  	95.450301 
1613.614712  	95.496782 
1615.051591  	95.656433 
1616.488470  	95.744694 
1617.925348  	95.453797 
1619.362227  	95.288803 
1620.799106  	95.310847 
1622.235984  	95.367700 
1623.672863  	95.179115 
1625.109742  	94.969619 
1626.546620  	94.979461 
1627.983499  	94.931221 
1629.420378  	94.690908 
1630.857256  	94.470866 
1632.294135  	94.063174 
1633.731013  	93.870198 
1635.167892  	93.532058 
1636.604771  	91.904616 
1638.041649  	91.782055 
1639.478528  	92.344987 
1640.915407  	92.956979 
1642.352285  	93.403829 
1643.789164  	94.069276 
1645.226043  	95.121122 
1646.662921  	95.632526 
1648.099800  	95.018624 
1649.536678  	94.894290 
1650.973557  	95.417979 
1652.410436  	96.202021 
1653.847314  	94.856326 
1655.284193  	94.857995 
1656.721072  	95.064711 
1658.157950  	95.280691 
1659.594829  	95.169940 
1661.031708  	95.189365 
1662.468586  	95.335211 
1663.905465  	95.277629 
1665.342344  	95.144893 
1666.779222  	95.196278 
1668.216101  	95.344363 
1669.652979  	95.315994 
1671.089858  	95.208279 
1672.526737  	95.304643 
1673.963615  	95.444081 
1675.400494  	95.410488 
1676.837373  	95.424353 
1678.274251  	95.466650 
1679.711130  	95.492161 
1681.148009  	95.539475 
1682.584887  	95.860331 
1684.021766  	96.095332 
1685.458644  	95.773976 
1686.895523  	95.592677 
1688.332402  	95.657320 
1689.769280  	95.770411 
1691.206159  	95.873517 
1692.643038  	96.117595 
1694.079916  	96.713377 
1695.516795  	96.842661 
1696.953674  	95.661198 
1698.390552  	95.591085 
1699.827431  	96.255674 
1701.264310  	95.718382 
1702.701188  	95.120912 
1704.138067  	95.201846 
1705.574945  	95.200760 
1707.011824  	94.648830 
1708.448703  	94.452723 
1709.885581  	94.506960 
1711.322460  	94.350420 
1712.759339  	94.048292 
1714.196217  	93.695218 
1715.633096  	93.457768 
1717.069975  	93.361490 
1718.506853  	92.920275 
1719.943732  	92.501280 
1721.380610  	92.289417 
1722.817489  	92.192711 
1724.254368  	92.034937 
1725.691246  	92.150172 
1727.128125  	92.365597 
1728.565004  	92.161146 
1730.001882  	91.624033 
1731.438761  	91.405350 
1732.875640  	91.650772 
1734.312518  	91.550227 
1735.749397  	91.089648 
1737.186276  	90.845354 
1738.623154  	90.947156 
1740.060033  	90.834647 
1741.496911  	90.478431 
1742.933790  	90.234385 
1744.370669  	90.234394 
1745.807547  	90.272553 
1747.244426  	90.119155 
1748.681305  	90.142826 
1750.118183  	90.409084 
1751.555062  	90.486028 
1752.991941  	90.893927 
1754.428819  	91.384481 
1755.865698  	91.858054 
1757.302576  	92.167684 
1758.739455  	92.554739 
1760.176334  	93.149895 
1761.613212  	93.710358 
1763.050091  	94.009535 
1764.486970  	94.580658 
1765.923848  	95.314831 
1767.360727  	95.596597 
1768.797606  	95.741389 
1770.234484  	95.984530 
1771.671363  	96.256687 
1773.108242  	96.347958 
1774.545120  	96.271973 
1775.981999  	96.366902 
1777.418877  	96.641940 
1778.855756  	96.750720 
1780.292635  	96.808635 
1781.729513  	96.974525 
1783.166392  	97.076737 
1784.603271  	97.175304 
1786.040149  	97.255845 
1787.477028  	97.317256 
1788.913907  	97.390898 
1790.350785  	97.426102 
1791.787664  	97.384677 
1793.224542  	97.354574 
1794.661421  	97.175275 
1796.098300  	97.028447 
1797.535178  	97.122318 
1798.972057  	97.247129 
1800.408936  	97.217096 
1801.845814  	97.061941 
1803.282693  	97.083652 
1804.719572  	97.231151 
1806.156450  	97.188849 
1807.593329  	97.069115 
1809.030207  	97.161313 
1810.467086  	97.193117 
1811.903965  	97.106611 
1813.340843  	97.139832 
1814.777722  	97.268331 
1816.214601  	97.312289 
1817.651479  	97.303694 
1819.088358  	97.366260 
1820.525237  	97.425054 
1821.962115  	97.429654 
1823.398994  	97.467743 
1824.835873  	97.434995 
1826.272751  	97.371056 
1827.709630  	97.455675 
1829.146508  	97.547763 
1830.583387  	97.508552 
1832.020266  	97.448946 
1833.457144  	97.444123 
1834.894023  	97.616593 
1836.330902  	97.679721 
1837.767780  	97.692700 
1839.204659  	97.868616 
1840.641538  	97.953121 
1842.078416  	97.967635 
1843.515295  	98.045961 
1844.952173  	97.880822 
1846.389052  	97.738082 
1847.825931  	97.776855 
1849.262809  	97.859953 
1850.699688  	97.938930 
1852.136567  	98.008171 
1853.573445  	98.126903 
1855.010324  	98.186557 
1856.447203  	98.074816 
1857.884081  	97.978734 
1859.320960  	97.888521 
1860.757839  	97.831233 
1862.194717  	97.947592 
1863.631596  	97.989965 
1865.068474  	97.934253 
1866.505353  	97.894911 
1867.942232  	97.704649 
1869.379110  	97.473167 
1870.815989  	97.403812 
1872.252868  	97.439541 
1873.689746  	97.607203 
1875.126625  	97.638963 
1876.563504  	97.624139 
1878.000382  	97.745447 
1879.437261  	97.679644 
1880.874139  	97.630053 
1882.311018  	97.704936 
1883.747897  	97.662717 
1885.184775  	97.704668 
1886.621654  	97.795900 
1888.058533  	97.796614 
1889.495411  	97.747102 
1890.932290  	97.668753 
1892.369169  	97.737084 
1893.806047  	97.841809 
1895.242926  	97.789092 
1896.679805  	97.844692 
1898.116683  	97.951813 
1899.553562  	98.041144 
1900.990440  	98.119001 
1902.427319  	98.115787 
1903.864198  	98.154335 
1905.301076  	98.253465 
1906.737955  	98.209566 
1908.174834  	98.186983 
1909.611712  	98.182444 
1911.048591  	98.197844 
1912.485470  	98.321966 
1913.922348  	98.456018 
1915.359227  	98.592100 
1916.796105  	98.636917 
1918.232984  	98.502216 
1919.669863  	98.521951 
1921.106741  	98.562133 
1922.543620  	98.461194 
1923.980499  	98.452564 
1925.417377  	98.533997 
1926.854256  	98.821550 
1928.291135  	98.854639 
1929.728013  	98.827055 
1931.164892  	98.798611 
1932.601771  	98.784295 
1934.038649  	98.683891 
1935.475528  	98.727665 
1936.912406  	98.673271 
1938.349285  	98.576871 
1939.786164  	98.619736 
1941.223042  	98.532240 
1942.659921  	98.362438 
1944.096800  	98.253043 
1945.533678  	98.161760 
1946.970557  	98.342916 
1948.407436  	98.465236 
1949.844314  	98.511617 
1951.281193  	98.587988 
1952.718071  	98.405809 
1954.154950  	98.527924 
1955.591829  	98.672732 
1957.028707  	98.429871 
1958.465586  	98.656664 
1959.902465  	98.800725 
1961.339343  	98.640779 
1962.776222  	98.815035 
1964.213101  	98.601979 
1965.649979  	98.455440 
1967.086858  	98.735004 
1968.523737  	98.720068 
1969.960615  	98.843841 
1971.397494  	98.841148 
1972.834372  	98.803074 
1974.271251  	99.120682 
1975.708130  	99.218008 
1977.145008  	99.159798 
1978.581887  	99.086580 
1980.018766  	98.817018 
1981.455644  	98.858583 
1982.892523  	98.933358 
1984.329402  	98.828443 
1985.766280  	98.930184 
1987.203159  	98.797163 
1988.640037  	98.597051 
1990.076916  	98.538553 
1991.513795  	98.259257 
1992.950673  	98.420769 
1994.387552  	98.754068 
1995.824431  	98.861466 
1997.261309  	98.996220 
1998.698188  	98.867898 
2000.135067  	98.959151 
2001.571945  	99.375835 
2003.008824  	99.385373 
2004.445703  	99.427344 
2005.882581  	99.474738 
2007.319460  	99.330849 
2008.756338  	99.482036 
2010.193217  	99.261738 
2011.630096  	98.988874 
2013.066974  	99.171385 
2014.503853  	99.060309 
2015.940732  	98.984088 
2017.377610  	99.065070 
2018.814489  	98.939601 
2020.251368  	98.901912 
2021.688246  	98.777019 
2023.125125  	98.948606 
2024.562003  	99.259077 
2025.998882  	98.984162 
2027.435761  	99.158709 
2028.872639  	99.495518 
2030.309518  	99.141621 
2031.746397  	99.241059 
2033.183275  	99.368976 
2034.620154  	98.896680 
2036.057033  	98.548796 
2037.493911  	98.389271 
2038.930790  	98.515978 
2040.367669  	98.605924 
2041.804547  	98.476094 
2043.241426  	98.644067 
2044.678304  	98.654967 
2046.115183  	98.502916 
2047.552062  	98.617559 
2048.988940  	98.517150 
2050.425819  	98.440089 
2051.862698  	98.585014 
2053.299576  	98.616805 
2054.736455  	98.654364 
2056.173334  	98.596513 
2057.610212  	98.526925 
2059.047091  	98.624296 
2060.483969  	98.587776 
2061.920848  	98.540411 
2063.357727  	98.503952 
2064.794605  	98.411942 
2066.231484  	98.527406 
2067.668363  	98.550891 
2069.105241  	98.537898 
2070.542120  	98.686992 
2071.978999  	98.547478 
2073.415877  	98.468638 
2074.852756  	98.635702 
2076.289635  	98.578990 
2077.726513  	98.615388 
2079.163392  	98.704544 
2080.600270  	98.553980 
2082.037149  	98.551013 
2083.474028  	98.650199 
2084.910906  	98.671607 
2086.347785  	98.625001 
2087.784664  	98.467319 
2089.221542  	98.498857 
2090.658421  	98.633370 
2092.095300  	98.597601 
2093.532178  	98.642443 
2094.969057  	98.724352 
2096.405935  	98.698615 
2097.842814  	98.644145 
2099.279693  	98.589008 
2100.716571  	98.683279 
2102.153450  	98.736144 
2103.590329  	98.637274 
2105.027207  	98.710930 
2106.464086  	98.825614 
2107.900965  	98.821728 
2109.337843  	98.779956 
2110.774722  	98.689637 
2112.211600  	98.731585 
2113.648479  	98.771885 
2115.085358  	98.659937 
2116.522236  	98.709690 
2117.959115  	98.888711 
2119.395994  	99.012970 
2120.832872  	99.036195 
2122.269751  	98.944766 
2123.706630  	98.998321 
2125.143508  	99.081134 
2126.580387  	99.028404 
2128.017266  	99.119070 
2129.454144  	99.223382 
2130.891023  	99.291350 
2132.327901  	99.423548 
2133.764780  	99.371998 
2135.201659  	99.379056 
2136.638537  	99.449882 
2138.075416  	99.382132 
2139.512295  	99.548995 
2140.949173  	99.646944 
2142.386052  	99.658959 
2143.822931  	99.904453 
2145.259809  	99.783391 
2146.696688  	99.663221 
2148.133566  	99.804149 
2149.570445  	99.614682 
2151.007324  	99.659883 
2152.444202  	99.904601 
2153.881081  	99.961647 
2155.317960  	100.183894 
2156.754838  	100.095086 
2158.191717  	100.028492 
2159.628596  	100.146048 
2161.065474  	99.573842 
2162.502353  	99.285641 
2163.939232  	99.168753 
2165.376110  	98.905093 
2166.812989  	99.117756 
2168.249867  	99.261097 
2169.686746  	99.193882 
2171.123625  	99.181750 
2172.560503  	99.056965 
2173.997382  	99.242934 
2175.434261  	99.367491 
2176.871139  	99.111286 
2178.308018  	99.072037 
2179.744897  	98.867221 
2181.181775  	98.648017 
2182.618654  	98.707252 
2184.055532  	98.576796 
2185.492411  	98.706690 
2186.929290  	98.930866 
2188.366168  	98.774314 
2189.803047  	98.839179 
2191.239926  	98.905107 
2192.676804  	98.768295 
2194.113683  	98.703669 
2195.550562  	98.532357 
2196.987440  	98.602567 
2198.424319  	98.796684 
2199.861198  	98.723979 
2201.298076  	98.831964 
2202.734955  	98.870747 
2204.171833  	98.733568 
2205.608712  	98.844996 
2207.045591  	98.773728 
2208.482469  	98.578600 
2209.919348  	98.621349 
2211.356227  	98.636066 
2212.793105  	98.648223 
2214.229984  	98.675930 
2215.666863  	98.676770 
2217.103741  	98.674663 
2218.540620  	98.552716 
2219.977498  	98.517950 
2221.414377  	98.481737 
2222.851256  	98.329234 
2224.288134  	98.304056 
2225.725013  	98.090233 
2227.161892  	97.727283 
2228.598770  	97.497951 
2230.035649  	97.037901 
2231.472528  	96.363617 
2232.909406  	95.559001 
2234.346285  	94.729114 
2235.783164  	94.183453 
2237.220042  	93.775175 
2238.656921  	93.732406 
2240.093799  	94.202238 
2241.530678  	94.653566 
2242.967557  	95.112402 
2244.404435  	95.756054 
2245.841314  	96.267564 
2247.278193  	96.734169 
2248.715071  	97.117179 
2250.151950  	97.278988 
2251.588829  	97.414066 
2253.025707  	97.522868 
2254.462586  	97.583317 
2255.899464  	97.683887 
2257.336343  	97.723329 
2258.773222  	97.757032 
2260.210100  	97.851670 
2261.646979  	97.822272 
2263.083858  	97.942368 
2264.520736  	98.022747 
2265.957615  	97.984111 
2267.394494  	98.042709 
2268.831372  	98.007533 
2270.268251  	97.952960 
2271.705130  	97.990902 
2273.142008  	97.954031 
2274.578887  	97.940506 
2276.015765  	97.884299 
2277.452644  	97.869362 
2278.889523  	97.898244 
2280.326401  	97.898247 
2281.763280  	97.886636 
2283.200159  	97.861569 
2284.637037  	97.799516 
2286.073916  	97.786995 
2287.510795  	97.776861 
2288.947673  	97.745151 
2290.384552  	97.742650 
2291.821430  	97.720167 
2293.258309  	97.676472 
2294.695188  	97.670531 
2296.132066  	97.672640 
2297.568945  	97.632969 
2299.005824  	97.500871 
2300.442702  	97.377277 
2301.879581  	97.342512 
2303.316460  	97.262668 
2304.753338  	97.135959 
2306.190217  	97.038709 
2307.627096  	96.881663 
2309.063974  	96.729464 
2310.500853  	96.576257 
2311.937731  	96.467987 
2313.374610  	96.518960 
2314.811489  	96.554325 
2316.248367  	96.546609 
2317.685246  	96.503990 
2319.122125  	96.285049 
2320.559003  	96.070660 
2321.995882  	95.906966 
2323.432761  	95.687043 
2324.869639  	95.606974 
2326.306518  	95.685609 
2327.743396  	95.799971 
2329.180275  	95.879696 
2330.617154  	95.884263 
2332.054032  	95.954196 
2333.490911  	96.066903 
2334.927790  	96.104176 
2336.364668  	96.175820 
2337.801547  	96.301705 
2339.238426  	96.412197 
2340.675304  	96.395154 
2342.112183  	96.218967 
2343.549062  	96.054751 
2344.985940  	95.831581 
2346.422819  	95.647445 
2347.859697  	95.698210 
2349.296576  	95.796113 
2350.733455  	96.022795 
2352.170333  	96.381807 
2353.607212  	96.534892 
2355.044091  	96.569114 
2356.480969  	96.570808 
2357.917848  	96.366438 
2359.354727  	96.303735 
2360.791605  	96.441903 
2362.228484  	96.485286 
2363.665362  	96.539885 
2365.102241  	96.558013 
2366.539120  	96.535319 
2367.975998  	96.547376 
2369.412877  	96.470749 
2370.849756  	96.474061 
2372.286634  	96.573428 
2373.723513  	96.579701 
2375.160392  	96.598317 
2376.597270  	96.638611 
2378.034149  	96.669494 
2379.471027  	96.757541 
2380.907906  	96.904450 
2382.344785  	97.162245 
2383.781663  	97.468956 
2385.218542  	97.717500 
2386.655421  	97.925562 
2388.092299  	98.033278 
2389.529178  	98.103360 
2390.966057  	98.182230 
2392.402935  	98.203676 
2393.839814  	98.219860 
2395.276693  	98.260330 
2396.713571  	98.279269 
2398.150450  	98.295446 
2399.587328  	98.287626 
2401.024207  	98.287995 
2402.461086  	98.315499 
2403.897964  	98.307417 
2405.334843  	98.320754 
2406.771722  	98.342366 
2408.208600  	98.315861 
2409.645479  	98.300780 
2411.082358  	98.262117 
2412.519236  	98.228813 
2413.956115  	98.259216 
2415.392993  	98.261565 
2416.829872  	98.268214 
2418.266751  	98.310862 
2419.703629  	98.327381 
2421.140508  	98.345954 
2422.577387  	98.335750 
2424.014265  	98.301056 
2425.451144  	98.294581 
2426.888023  	98.270516 
2428.324901  	98.264116 
2429.761780  	98.273443 
2431.198659  	98.235339 
2432.635537  	98.194854 
2434.072416  	98.157857 
2435.509294  	98.153897 
2436.946173  	98.183368 
2438.383052  	98.159257 
2439.819930  	98.147266 
2441.256809  	98.166265 
2442.693688  	98.163449 
2444.130566  	98.185548 
2445.567445  	98.198462 
2447.004324  	98.211593 
2448.441202  	98.232829 
2449.878081  	98.196710 
2451.314959  	98.209106 
2452.751838  	98.229616 
2454.188717  	98.157027 
2455.625595  	98.145452 
2457.062474  	98.171182 
2458.499353  	98.170692 
2459.936231  	98.198959 
2461.373110  	98.168894 
2462.809989  	98.136081 
2464.246867  	98.164495 
2465.683746  	98.157257 
2467.120625  	98.146084 
2468.557503  	98.116842 
2469.994382  	98.093867 
2471.431260  	98.158204 
2472.868139  	98.178657 
2474.305018  	98.161873 
2475.741896  	98.167337 
2477.178775  	98.120190 
2478.615654  	98.094598 
2480.052532  	98.065962 
2481.489411  	98.016758 
2482.926290  	98.060875 
2484.363168  	98.077924 
2485.800047  	98.061095 
2487.236925  	98.096391 
2488.673804  	98.066231 
2490.110683  	98.036859 
2491.547561  	98.053948 
2492.984440  	98.030489 
2494.421319  	98.020521 
2495.858197  	98.009321 
2497.295076  	98.021771 
2498.731955  	98.068884 
2500.168833  	98.039059 
2501.605712  	98.046413 
2503.042591  	98.091413 
2504.479469  	98.044744 
2505.916348  	98.031795 
2507.353226  	98.029779 
2508.790105  	97.997155 
2510.226984  	98.027223 
2511.663862  	98.021184 
2513.100741  	97.998922 
2514.537620  	98.020460 
2515.974498  	97.989209 
2517.411377  	97.957641 
2518.848256  	97.953838 
2520.285134  	97.971411 
2521.722013  	98.016083 
2523.158891  	97.985984 
2524.595770  	97.960512 
2526.032649  	97.983272 
2527.469527  	97.954592 
2528.906406  	97.959052 
2530.343285  	97.967238 
2531.780163  	97.927836 
2533.217042  	97.925841 
2534.653921  	97.903077 
2536.090799  	97.907205 
2537.527678  	97.933803 
2538.964557  	97.852987 
2540.401435  	97.840474 
2541.838314  	97.900135 
2543.275192  	97.873255 
2544.712071  	97.890315 
2546.148950  	97.912652 
2547.585828  	97.860518 
2549.022707  	97.849329 
2550.459586  	97.855023 
2551.896464  	97.856932 
2553.333343  	97.841452 
2554.770222  	97.790500 
2556.207100  	97.787530 
2557.643979  	97.791683 
2559.080857  	97.806932 
2560.517736  	97.859688 
2561.954615  	97.836108 
2563.391493  	97.816931 
2564.828372  	97.828273 
2566.265251  	97.765138 
2567.702129  	97.741781 
2569.139008  	97.739639 
2570.575887  	97.691768 
2572.012765  	97.714031 
2573.449644  	97.754021 
2574.886523  	97.760268 
2576.323401  	97.766680 
2577.760280  	97.732425 
2579.197158  	97.701275 
2580.634037  	97.669454 
2582.070916  	97.626482 
2583.507794  	97.646557 
2584.944673  	97.640624 
2586.381552  	97.580169 
2587.818430  	97.576381 
2589.255309  	97.594304 
2590.692188  	97.593397 
2592.129066  	97.596475 
2593.565945  	97.600525 
2595.002823  	97.600137 
2596.439702  	97.583686 
2597.876581  	97.574069 
2599.313459  	97.560292 
2600.750338  	97.525499 
2602.187217  	97.524832 
2603.624095  	97.528477 
2605.060974  	97.512016 
2606.497853  	97.515640 
2607.934731  	97.500157 
2609.371610  	97.479967 
2610.808489  	97.490086 
2612.245367  	97.499898 
2613.682246  	97.521360 
2615.119124  	97.519272 
2616.556003  	97.484876 
2617.992882  	97.490474 
2619.429760  	97.499015 
2620.866639  	97.480901 
2622.303518  	97.471085 
2623.740396  	97.471806 
2625.177275  	97.489343 
2626.614154  	97.479550 
2628.051032  	97.437649 
2629.487911  	97.429380 
2630.924789  	97.424697 
2632.361668  	97.413322 
2633.798547  	97.415185 
2635.235425  	97.397172 
2636.672304  	97.387776 
2638.109183  	97.392546 
2639.546061  	97.384664 
2640.982940  	97.394526 
2642.419819  	97.405933 
2643.856697  	97.410515 
2645.293576  	97.427933 
2646.730454  	97.428041 
2648.167333  	97.416621 
2649.604212  	97.414107 
2651.041090  	97.424173 
2652.477969  	97.444936 
2653.914848  	97.441933 
2655.351726  	97.441082 
2656.788605  	97.465792 
2658.225484  	97.468999 
2659.662362  	97.465779 
2661.099241  	97.473820 
2662.536120  	97.486046 
2663.972998  	97.514983 
2665.409877  	97.520780 
2666.846755  	97.512418 
2668.283634  	97.528857 
2669.720513  	97.532885 
2671.157391  	97.542128 
2672.594270  	97.560988 
2674.031149  	97.546718 
2675.468027  	97.547263 
2676.904906  	97.568023 
2678.341785  	97.571591 
2679.778663  	97.581044 
2681.215542  	97.586092 
2682.652420  	97.582351 
2684.089299  	97.579774 
2685.526178  	97.566823 
2686.963056  	97.568730 
2688.399935  	97.579308 
2689.836814  	97.572366 
2691.273692  	97.555296 
2692.710571  	97.535097 
2694.147450  	97.547500 
2695.584328  	97.575994 
2697.021207  	97.571593 
2698.458086  	97.571725 
2699.894964  	97.573986 
2701.331843  	97.560019 
2702.768721  	97.566822 
2704.205600  	97.570827 
2705.642479  	97.567861 
2707.079357  	97.588281 
2708.516236  	97.605981 
2709.953115  	97.607133 
2711.389993  	97.588871 
2712.826872  	97.568827 
2714.263751  	97.567353 
2715.700629  	97.554459 
2717.137508  	97.550272 
2718.574386  	97.559127 
2720.011265  	97.543210 
2721.448144  	97.545248 
2722.885022  	97.556565 
2724.321901  	97.540358 
2725.758780  	97.535900 
2727.195658  	97.531189 
2728.632537  	97.524171 
2730.069416  	97.530432 
2731.506294  	97.521991 
2732.943173  	97.530025 
2734.380052  	97.546915 
2735.816930  	97.529558 
2737.253809  	97.516933 
2738.690687  	97.519124 
2740.127566  	97.532828 
2741.564445  	97.544528 
2743.001323  	97.524637 
2744.438202  	97.528356 
2745.875081  	97.542130 
2747.311959  	97.522202 
2748.748838  	97.524502 
2750.185717  	97.514045 
2751.622595  	97.482321 
2753.059474  	97.503023 
2754.496352  	97.516067 
2755.933231  	97.492542 
2757.370110  	97.476745 
2758.806988  	97.463348 
2760.243867  	97.465160 
2761.680746  	97.460749 
2763.117624  	97.448951 
2764.554503  	97.463423 
2765.991382  	97.447294 
2767.428260  	97.403107 
2768.865139  	97.381391 
2770.302018  	97.367495 
2771.738896  	97.367763 
2773.175775  	97.359209 
2774.612653  	97.337515 
2776.049532  	97.331497 
2777.486411  	97.293093 
2778.923289  	97.253677 
2780.360168  	97.258342 
2781.797047  	97.243868 
2783.233925  	97.223857 
2784.670804  	97.210285 
2786.107683  	97.171828 
2787.544561  	97.139817 
2788.981440  	97.113845 
2790.418318  	97.096715 
2791.855197  	97.087602 
2793.292076  	97.053807 
2794.728954  	97.034155 
2796.165833  	97.019391 
2797.602712  	96.977634 
2799.039590  	96.948463 
2800.476469  	96.907227 
2801.913348  	96.859196 
2803.350226  	96.838256 
2804.787105  	96.801805 
2806.223984  	96.767003 
2807.660862  	96.739841 
2809.097741  	96.690781 
2810.534619  	96.639863 
2811.971498  	96.564283 
2813.408377  	96.480617 
2814.845255  	96.406338 
2816.282134  	96.294420 
2817.719013  	96.189819 
2819.155891  	96.081479 
2820.592770  	95.923842 
2822.029649  	95.769420 
2823.466527  	95.557623 
2824.903406  	95.275239 
2826.340284  	95.005115 
2827.777163  	94.674468 
2829.214042  	94.258285 
2830.650920  	93.788212 
2832.087799  	93.255144 
2833.524678  	92.717992 
2834.961556  	92.150097 
2836.398435  	91.535704 
2837.835314  	90.956334 
2839.272192  	90.364103 
2840.709071  	89.734366 
2842.145950  	89.135265 
2843.582828  	88.545905 
2845.019707  	87.911466 
2846.456585  	87.216306 
2847.893464  	86.551513 
2849.330343  	86.120698 
2850.767221  	86.080392 
2852.204100  	86.395925 
2853.640979  	86.851654 
2855.077857  	87.278058 
2856.514736  	87.680460 
2857.951615  	88.098398 
2859.388493  	88.529323 
2860.825372  	88.969143 
2862.262250  	89.384998 
2863.699129  	89.741309 
2865.136008  	90.022504 
2866.572886  	90.226145 
2868.009765  	90.380649 
2869.446644  	90.478279 
2870.883522  	90.528245 
2872.320401  	90.581290 
2873.757280  	90.607743 
2875.194158  	90.605813 
2876.631037  	90.600861 
2878.067916  	90.522936 
2879.504794  	90.357735 
2880.941673  	90.143626 
2882.378551  	89.885316 
2883.815430  	89.606775 
2885.252309  	89.305668 
2886.689187  	88.981008 
2888.126066  	88.636668 
2889.562945  	88.239024 
2890.999823  	87.817237 
2892.436702  	87.419039 
2893.873581  	87.023605 
2895.310459  	86.603148 
2896.747338  	86.164548 
2898.184216  	85.730715 
2899.621095  	85.281816 
2901.057974  	84.799291 
2902.494852  	84.300630 
2903.931731  	83.770764 
2905.368610  	83.215104 
2906.805488  	82.640816 
2908.242367  	82.022420 
2909.679246  	81.387627 
2911.116124  	80.725006 
2912.553003  	79.977278 
2913.989882  	79.158625 
2915.426760  	78.346946 
2916.863639  	77.690828 
2918.300517  	77.282096 
2919.737396  	77.113461 
2921.174275  	77.170765 
2922.611153  	77.377722 
2924.048032  	77.675674 
2925.484911  	78.044077 
2926.921789  	78.449580 
2928.358668  	78.894810 
2929.795547  	79.373726 
2931.232425  	79.893891 
2932.669304  	80.457564 
2934.106182  	81.008698 
2935.543061  	81.571484 
2936.979940  	82.180478 
2938.416818  	82.763463 
2939.853697  	83.314343 
2941.290576  	83.889003 
2942.727454  	84.457573 
2944.164333  	84.987854 
2945.601212  	85.502061 
2947.038090  	85.985431 
2948.474969  	86.424039 
2949.911847  	86.841032 
2951.348726  	87.214817 
2952.785605  	87.553745 
2954.222483  	87.934419 
2955.659362  	88.361822 
2957.096241  	88.796368 
2958.533119  	89.232188 
2959.969998  	89.656738 
2961.406877  	90.075068 
2962.843755  	90.500112 
2964.280634  	90.899417 
2965.717513  	91.242772 
2967.154391  	91.544860 
2968.591270  	91.809469 
2970.028148  	92.007506 
2971.465027  	92.173541 
2972.901906  	92.349132 
2974.338784  	92.489222 
2975.775663  	92.592976 
2977.212542  	92.685196 
2978.649420  	92.737663 
2980.086299  	92.769228 
2981.523178  	92.825362 
2982.960056  	92.928338 
2984.396935  	93.066556 
2985.833813  	93.181665 
2987.270692  	93.258030 
2988.707571  	93.323371 
2990.144449  	93.394901 
2991.581328  	93.464563 
2993.018207  	93.484294 
2994.455085  	93.468445 
2995.891964  	93.443043 
2997.328843  	93.347765 
2998.765721  	93.177010 
3000.202600  	92.961068 
3001.639479  	92.747881 
3003.076357  	92.618715 
3004.513236  	92.562945 
3005.950114  	92.609347 
3007.386993  	92.788567 
3008.823872  	92.971975 
3010.260750  	93.126225 
3011.697629  	93.294369 
3013.134508  	93.416193 
3014.571386  	93.493453 
3016.008265  	93.526011 
3017.445144  	93.460659 
3018.882022  	93.284940 
3020.318901  	92.951018 
3021.755779  	92.488378 
3023.192658  	91.985530 
3024.629537  	91.486793 
3026.066415  	91.120435 
3027.503294  	90.974118 
3028.940173  	91.045106 
3030.377051  	91.339132 
3031.813930  	91.786620 
3033.250809  	92.312715 
3034.687687  	92.900654 
3036.124566  	93.468369 
3037.561445  	93.943074 
3038.998323  	94.321642 
3040.435202  	94.635165 
3041.872080  	94.929681 
3043.308959  	95.154526 
3044.745838  	95.308788 
3046.182716  	95.459419 
3047.619595  	95.528215 
3049.056474  	95.500870 
3050.493352  	95.458686 
3051.930231  	95.394228 
3053.367110  	95.293985 
3054.803988  	95.108440 
3056.240867  	94.851867 
3057.677745  	94.638969 
3059.114624  	94.464053 
3060.551503  	94.334570 
3061.988381  	94.282537 
3063.425260  	94.275630 
3064.862139  	94.369358 
3066.299017  	94.557303 
3067.735896  	94.751519 
3069.172775  	94.945677 
3070.609653  	95.098027 
3072.046532  	95.205938 
3073.483411  	95.296920 
3074.920289  	95.340626 
3076.357168  	95.376212 
3077.794046  	95.380974 
3079.230925  	95.315600 
3080.667804  	95.234361 
3082.104682  	95.116289 
3083.541561  	95.052666 
3084.978440  	95.145831 
3086.415318  	95.285528 
3087.852197  	95.488793 
3089.289076  	95.765510 
3090.725954  	95.991017 
3092.162833  	96.214596 
3093.599711  	96.424124 
3095.036590  	96.541625 
3096.473469  	96.629517 
3097.910347  	96.681218 
3099.347226  	96.700296 
3100.784105  	96.693742 
3102.220983  	96.633397 
3103.657862  	96.631641 
3105.094741  	96.678954 
3106.531619  	96.679640 
3107.968498  	96.705161 
3109.405377  	96.781000 
3110.842255  	96.882192 
3112.279134  	96.976675 
3113.716012  	97.026818 
3115.152891  	97.096058 
3116.589770  	97.138642 
3118.026648  	97.126059 
3119.463527  	97.181150 
3120.900406  	97.224985 
3122.337284  	97.201401 
3123.774163  	97.226974 
3125.211042  	97.270798 
3126.647920  	97.279217 
3128.084799  	97.266826 
3129.521677  	97.271135 
3130.958556  	97.315619 
3132.395435  	97.294107 
3133.832313  	97.226177 
3135.269192  	97.244370 
3136.706071  	97.290315 
3138.142949  	97.303989 
3139.579828  	97.289124 
3141.016707  	97.262204 
3142.453585  	97.271941 
3143.890464  	97.286945 
3145.327343  	97.303724 
3146.764221  	97.313038 
3148.201100  	97.266551 
3149.637978  	97.256399 
3151.074857  	97.267304 
3152.511736  	97.229766 
3153.948614  	97.242813 
3155.385493  	97.253397 
3156.822372  	97.214850 
3158.259250  	97.227032 
3159.696129  	97.225537 
3161.133008  	97.186576 
3162.569886  	97.180163 
3164.006765  	97.191466 
3165.443643  	97.218028 
3166.880522  	97.218584 
3168.317401  	97.189907 
3169.754279  	97.177505 
3171.191158  	97.153396 
3172.628037  	97.168817 
3174.064915  	97.205718 
3175.501794  	97.172575 
3176.938673  	97.144952 
3178.375551  	97.122558 
3179.812430  	97.099315 
3181.249309  	97.146919 
3182.686187  	97.157361 
3184.123066  	97.117173 
3185.559944  	97.113990 
3186.996823  	97.097497 
3188.433702  	97.088477 
3189.870580  	97.096502 
3191.307459  	97.090361 
3192.744338  	97.104402 
3194.181216  	97.085523 
3195.618095  	97.039173 
3197.054974  	97.022015 
3198.491852  	96.995234 
3199.928731  	96.986543 
3201.365609  	96.995272 
3202.802488  	96.990899 
3204.239367  	96.995903 
3205.676245  	96.979371 
3207.113124  	96.979184 
3208.550003  	96.989657 
3209.986881  	96.942625 
3211.423760  	96.942618 
3212.860639  	96.960806 
3214.297517  	96.921877 
3215.734396  	96.951131 
3217.171274  	96.990279 
3218.608153  	96.955540 
3220.045032  	96.919490 
3221.481910  	96.873664 
3222.918789  	96.861424 
3224.355668  	96.894237 
3225.792546  	96.891761 
3227.229425  	96.877533 
3228.666304  	96.865144 
3230.103182  	96.876004 
3231.540061  	96.897677 
3232.976940  	96.855089 
3234.413818  	96.834239 
3235.850697  	96.841325 
3237.287575  	96.811563 
3238.724454  	96.835578 
3240.161333  	96.874586 
3241.598211  	96.884222 
3243.035090  	96.883332 
3244.471969  	96.791070 
3245.908847  	96.724323 
3247.345726  	96.765400 
3248.782605  	96.784110 
3250.219483  	96.808311 
3251.656362  	96.823189 
3253.093240  	96.793260 
3254.530119  	96.794038 
3255.966998  	96.764366 
3257.403876  	96.734651 
3258.840755  	96.777193 
3260.277634  	96.778661 
3261.714512  	96.736544 
3263.151391  	96.711398 
3264.588270  	96.722480 
3266.025148  	96.753964 
3267.462027  	96.711079 
3268.898906  	96.676479 
3270.335784  	96.701007 
3271.772663  	96.647824 
3273.209541  	96.584473 
3274.646420  	96.590770 
3276.083299  	96.605451 
3277.520177  	96.615104 
3278.957056  	96.596803 
3280.393935  	96.590435 
3281.830813  	96.573473 
3283.267692  	96.483431 
3284.704571  	96.449988 
3286.141449  	96.442419 
3287.578328  	96.376324 
3289.015206  	96.353063 
3290.452085  	96.302875 
3291.888964  	96.206069 
3293.325842  	96.148814 
3294.762721  	96.055863 
3296.199600  	95.966921 
3297.636478  	95.888923 
3299.073357  	95.753297 
3300.510236  	95.695358 
3301.947114  	95.730054 
3303.383993  	95.779942 
3304.820872  	95.886330 
3306.257750  	96.015606 
3307.694629  	96.126794 
3309.131507  	96.193650 
3310.568386  	96.231845 
3312.005265  	96.317431 
3313.442143  	96.380002 
3314.879022  	96.440547 
3316.315901  	96.534980 
3317.752779  	96.523383 
3319.189658  	96.520549 
3320.626537  	96.592657 
3322.063415  	96.568783 
3323.500294  	96.545096 
3324.937172  	96.564219 
3326.374051  	96.522959 
3327.810930  	96.492375 
3329.247808  	96.508316 
3330.684687  	96.575839 
3332.121566  	96.614250 
3333.558444  	96.534812 
3334.995323  	96.499303 
3336.432202  	96.506296 
3337.869080  	96.471685 
3339.305959  	96.509774 
3340.742838  	96.545439 
3342.179716  	96.513187 
3343.616595  	96.502775 
3345.053473  	96.511542 
3346.490352  	96.546132 
3347.927231  	96.538138 
3349.364109  	96.481223 
3350.800988  	96.495237 
3352.237867  	96.486661 
3353.674745  	96.439989 
3355.111624  	96.419344 
3356.548503  	96.352484 
3357.985381  	96.360674 
3359.422260  	96.452787 
3360.859138  	96.455148 
3362.296017  	96.427854 
3363.732896  	96.393996 
3365.169774  	96.364783 
3366.606653  	96.397471 
3368.043532  	96.396696 
3369.480410  	96.403509 
3370.917289  	96.443162 
3372.354168  	96.421619 
3373.791046  	96.404040 
3375.227925  	96.400985 
3376.664804  	96.421660 
3378.101682  	96.465344 
3379.538561  	96.409996 
3380.975439  	96.379939 
3382.412318  	96.418553 
3383.849197  	96.378802 
3385.286075  	96.363041 
3386.722954  	96.350118 
3388.159833  	96.325854 
3389.596711  	96.441232 
3391.033590  	96.473335 
3392.470469  	96.338264 
3393.907347  	96.299456 
3395.344226  	96.324023 
3396.781104  	96.323372 
3398.217983  	96.337712 
3399.654862  	96.369776 
3401.091740  	96.406995 
3402.528619  	96.393715 
3403.965498  	96.392450 
3405.402376  	96.425057 
3406.839255  	96.420724 
3408.276134  	96.474271 
3409.713012  	96.499441 
3411.149891  	96.407756 
3412.586770  	96.393738 
3414.023648  	96.406666 
3415.460527  	96.402229 
3416.897405  	96.487170 
3418.334284  	96.492328 
3419.771163  	96.373160 
3421.208041  	96.276750 
3422.644920  	96.252819 
3424.081799  	96.337014 
3425.518677  	96.427200 
3426.955556  	96.452301 
3428.392435  	96.482160 
3429.829313  	96.486823 
3431.266192  	96.488810 
3432.703070  	96.512944 
3434.139949  	96.530743 
3435.576828  	96.539840 
3437.013706  	96.437669 
3438.450585  	96.380444 
3439.887464  	96.528513 
3441.324342  	96.537373 
3442.761221  	96.403624 
3444.198100  	96.435567 
3445.634978  	96.423347 
3447.071857  	96.263109 
3448.508736  	96.246196 
3449.945614  	96.411379 
3451.382493  	96.558537 
3452.819371  	96.575186 
3454.256250  	96.531902 
3455.693129  	96.538202 
3457.130007  	96.558437 
3458.566886  	96.567074 
3460.003765  	96.541004 
3461.440643  	96.467209 
3462.877522  	96.442477 
3464.314401  	96.514040 
3465.751279  	96.589094 
3467.188158  	96.594235 
3468.625036  	96.613809 
3470.061915  	96.673930 
3471.498794  	96.641239 
3472.935672  	96.591277 
3474.372551  	96.595299 
3475.809430  	96.559635 
3477.246308  	96.609997 
3478.683187  	96.703015 
3480.120066  	96.605782 
3481.556944  	96.436148 
3482.993823  	96.381652 
3484.430701  	96.500820 
3485.867580  	96.671288 
3487.304459  	96.646791 
3488.741337  	96.583084 
3490.178216  	96.667570 
3491.615095  	96.708981 
3493.051973  	96.716112 
3494.488852  	96.697959 
3495.925731  	96.617899 
3497.362609  	96.656314 
3498.799488  	96.715207 
3500.236367  	96.619863 
3501.673245  	96.434419 
3503.110124  	96.202762 
3504.547002  	96.172363 
3505.983881  	96.465323 
3507.420760  	96.684687 
3508.857638  	96.568544 
3510.294517  	96.368854 
3511.731396  	96.501496 
3513.168274  	96.725696 
3514.605153  	96.732931 
3516.042032  	96.733805 
3517.478910  	96.735621 
3518.915789  	96.688834 
3520.352667  	96.841519 
3521.789546  	96.855334 
3523.226425  	96.403379 
3524.663303  	96.049559 
3526.100182  	96.080396 
3527.537061  	96.190344 
3528.973939  	96.347235 
3530.410818  	96.491066 
3531.847697  	96.609185 
3533.284575  	96.789420 
3534.721454  	96.836689 
3536.158333  	96.619016 
3537.595211  	96.507309 
3539.032090  	96.770707 
3540.468968  	97.034722 
3541.905847  	97.058226 
3543.342726  	96.962197 
3544.779604  	96.688471 
3546.216483  	96.324217 
3547.653362  	96.298228 
3549.090240  	96.577323 
3550.527119  	96.878365 
3551.963998  	96.947932 
3553.400876  	96.721116 
3554.837755  	96.723141 
3556.274633  	96.912742 
3557.711512  	96.957232 
3559.148391  	96.932869 
3560.585269  	96.934308 
3562.022148  	97.037104 
3563.459027  	97.143729 
3564.895905  	96.956026 
3566.332784  	96.416400 
3567.769663  	95.732415 
3569.206541  	95.816607 
3570.643420  	96.413530 
3572.080299  	96.897384 
3573.517177  	97.095758 
3574.954056  	97.161553 
3576.390934  	97.171748 
3577.827813  	97.126488 
3579.264692  	97.029187 
3580.701570  	96.999051 
3582.138449  	97.076053 
3583.575328  	97.095127 
3585.012206  	97.187356 
3586.449085  	97.255864 
3587.885964  	96.750145 
3589.322842  	96.399716 
3590.759721  	96.637211 
3592.196599  	96.984380 
3593.633478  	97.208439 
3595.070357  	97.008391 
3596.507235  	96.845909 
3597.944114  	97.030298 
3599.380993  	97.080559 
3600.817871  	96.988747 
3602.254750  	96.948182 
3603.691629  	97.027100 
3605.128507  	97.347664 
3606.565386  	97.522790 
3608.002265  	97.160442 
3609.439143  	96.717632 
3610.876022  	96.801120 
3612.312900  	97.170366 
3613.749779  	97.103427 
3615.186658  	96.618475 
3616.623536  	96.778053 
3618.060415  	97.110706 
3619.497294  	96.705583 
3620.934172  	96.406414 
3622.371051  	96.711507 
3623.807930  	97.024077 
3625.244808  	97.136674 
3626.681687  	97.281006 
3628.118565  	97.818251 
3629.555444  	97.414641 
3630.992323  	96.423928 
3632.429201  	96.512168 
3633.866080  	96.858308 
3635.302959  	96.775366 
3636.739837  	96.700809 
3638.176716  	96.962504 
3639.613595  	97.237263 
3641.050473  	97.126292 
3642.487352  	96.949172 
3643.924231  	97.187207 
3645.361109  	97.446975 
3646.797988  	97.511501 
3648.234866  	97.574154 
3649.671745  	97.390002 
3651.108624  	96.648768 
3652.545502  	96.403021 
3653.982381  	96.669604 
3655.419260  	97.333469 
3656.856138  	97.542143 
3658.293017  	97.049313 
3659.729896  	97.042766 
3661.166774  	97.331982 
3662.603653  	97.473222 
3664.040531  	97.438475 
3665.477410  	97.316410 
3666.914289  	97.592724 
3668.351167  	98.234551 
3669.788046  	98.336584 
3671.224925  	97.415759 
3672.661803  	97.176899 
3674.098682  	98.017709 
3675.535561  	98.988709 
3676.972439  	97.173243 
3678.409318  	96.496773 
3679.846197  	97.138048 
3681.283075  	97.393191 
3682.719954  	97.215998 
3684.156832  	97.518431 
3685.593711  	97.915815 
3687.030590  	98.352742 
3688.467468  	98.771732 
3689.904347  	97.850333 
3691.341226  	96.561522 
3692.778104  	96.334756 
3694.214983  	96.771102 
3695.651862  	97.205933 
3697.088740  	97.475067 
3698.525619  	97.530804 
3699.962497  	97.651053 
3701.399376  	97.687060 
3702.836255  	97.157966 
3704.273133  	96.903151 
3705.710012  	97.355108 
3707.146891  	97.923894 
3708.583769  	98.276024 
3710.020648  	98.482198 
3711.457527  	98.260613 
3712.894405  	97.466962 
3714.331284  	96.797442 
3715.768163  	96.791721 
3717.205041  	97.273060 
3718.641920  	97.708798 
3720.078798  	98.048541 
3721.515677  	98.286707 
3722.952556  	97.850671 
3724.389434  	97.206970 
3725.826313  	96.900967 
3727.263192  	96.783048 
3728.700070  	97.193977 
3730.136949  	97.904538 
3731.573828  	98.857597 
3733.010706  	99.030445 
3734.447585  	97.762151 
3735.884463  	96.847012 
3737.321342  	97.000769 
3738.758221  	96.816680 
3740.195099  	96.761156 
3741.631978  	97.255734 
3743.068857  	98.351330 
3744.505735  	100.003950 
3745.942614  	98.462148 
3747.379493  	96.946998 
3748.816371  	97.391085 
3750.253250  	97.582180 
3751.690129  	96.759889 
3753.127007  	97.095105 
3754.563886  	97.475245 
3756.000764  	97.455869 
3757.437643  	97.529516 
3758.874522  	97.324885 
3760.311400  	97.065538 
3761.748279  	97.212977 
3763.185158  	97.639943 
3764.622036  	98.020916 
3766.058915  	97.701840 
3767.495794  	97.397929 
3768.932672  	97.781481 
3770.369551  	97.892509 
3771.806429  	97.443917 
3773.243308  	97.345961 
3774.680187  	97.605529 
3776.117065  	97.874565 
3777.553944  	98.107682 
3778.990823  	98.412338 
3780.427701  	98.203248 
3781.864580  	97.678594 
3783.301459  	97.752419 
3784.738337  	97.931293 
3786.175216  	97.581790 
3787.612094  	97.523929 
3789.048973  	97.947372 
3790.485852  	98.139988 
3791.922730  	97.924831 
3793.359609  	97.907283 
3794.796488  	98.411586 
3796.233366  	98.594086 
3797.670245  	97.808433 
3799.107124  	97.840314 
3800.544002  	98.955438 
3801.980881  	99.039555 
3803.417760  	97.368529 
3804.854638  	97.322082 
3806.291517  	98.270481 
3807.728395  	98.321310 
3809.165274  	97.516287 
3810.602153  	97.529170 
3812.039031  	97.792845 
3813.475910  	97.997247 
3814.912789  	98.664518 
3816.349667  	98.884701 
3817.786546  	97.722863 
3819.223425  	97.612038 
3820.660303  	98.436194 
3822.097182  	97.637698 
3823.534060  	96.620168 
3824.970939  	97.315668 
3826.407818  	98.251627 
3827.844696  	97.853771 
3829.281575  	97.543729 
3830.718454  	98.054460 
3832.155332  	98.226629 
3833.592211  	97.813157 
3835.029090  	97.801109 
3836.465968  	98.401654 
3837.902847  	98.724865 
3839.339726  	97.918447 
3840.776604  	97.273872 
3842.213483  	97.160245 
3843.650361  	96.907734 
3845.087240  	96.965261 
3846.524119  	97.461866 
3847.960997  	97.887851 
3849.397876  	98.163695 
3850.834755  	98.363311 
3852.271633  	98.923425 
3853.708512  	98.970221 
3855.145391  	97.306245 
3856.582269  	96.687884 
3858.019148  	96.969459 
3859.456026  	97.288714 
3860.892905  	97.456907 
3862.329784  	97.889421 
3863.766662  	98.248622 
3865.203541  	97.742376 
3866.640420  	97.109390 
3868.077298  	97.409197 
3869.514177  	97.732171 
3870.951056  	96.948863 
3872.387934  	96.999411 
3873.824813  	97.765574 
3875.261692  	97.812829 
3876.698570  	97.139735 
3878.135449  	97.472322 
3879.572327  	98.341637 
3881.009206  	97.749415 
3882.446085  	96.830429 
3883.882963  	97.448255 
3885.319842  	98.225599 
3886.756721  	97.670834 
3888.193599  	97.186049 
3889.630478  	97.677222 
3891.067357  	98.241346 
3892.504235  	97.496267 
3893.941114  	96.876674 
3895.377992  	97.276680 
3896.814871  	97.734589 
3898.251750  	97.876371 
3899.688628  	97.845542 
3901.125507  	97.650587 
3902.562386  	97.651465 
3903.999264  	97.597667 
3905.436143  	96.947502 
3906.873022  	96.645533 
3908.309900  	97.086920 
3909.746779  	97.643199 
3911.183658  	97.832364 
3912.620536  	97.843622 
3914.057415  	97.898241 
3915.494293  	97.866445 
3916.931172  	97.662691 
3918.368051  	97.531864 
3919.804929  	97.493461 
3921.241808  	97.496753 
3922.678687  	97.556097 
3924.115565  	97.522901 
3925.552444  	97.472630 
3926.989323  	97.576501 
3928.426201  	97.688955 
3929.863080  	97.726839 
3931.299958  	97.536801 
3932.736837  	97.219011 
3934.173716  	97.270888 
3935.610594  	97.655293 
3937.047473  	97.844634 
3938.484352  	97.696044 
3939.921230  	97.615018 
3941.358109  	97.756463 
3942.794988  	97.661525 
3944.231866  	97.416391 
3945.668745  	97.478737 
3947.105624  	97.565495 
3948.542502  	97.440836 
3949.979381  	97.355047 
3951.416259  	97.493068 
3952.853138  	97.696657 
3954.290017  	97.766722 
3955.726895  	97.724697 
3957.163774  	97.681952 
3958.600653  	97.652223 
3960.037531  	97.650638 
3961.474410  	97.593587 
3962.911289  	97.484099 
3964.348167  	97.542077 
3965.785046  	97.750021 
3967.221924  	97.874351 
3968.658803  	97.837636 
3970.095682  	97.738785 
3971.532560  	97.729338 
3972.969439  	97.756178 
3974.406318  	97.672629 
3975.843196  	97.558768 
3977.280075  	97.579889 
3978.716954  	97.758640 
3980.153832  	97.873740 
3981.590711  	97.811619 
3983.027590  	97.834425 
3984.464468  	97.916117 
3985.901347  	97.876514 
3987.338225  	97.896098 
3988.775104  	97.892167 
3990.211983  	97.738246 
3991.648861  	97.720286 
3993.085740  	97.812817 
3994.522619  	97.799686 
3995.959497  	97.771380 
3997.396376  	97.792756 
3998.833255  	97.838366 
4000.270133  	97.886865 