x               y
399.452262  	66.277788 
400.889141  	65.683084 
402.326019  	65.994966 
403.762898  	65.315645 
405.199776  	65.774525 
406.636655  	65.391478 
408.073534  	64.519139 
409.510412  	65.219647 
410.947291  	64.851849 
412.384170  	64.405351 
413.821048  	65.045764 
415.257927  	64.740240 
416.694806  	64.075736 
418.131684  	62.830127 
419.568563  	62.040550 
421.005441  	63.399325 
422.442320  	63.411850 
423.879199  	62.720391 
425.316077  	62.921653 
426.752956  	63.390612 
428.189835  	63.921729 
429.626713  	63.816315 
431.063592  	63.763786 
432.500471  	64.409752 
433.937349  	64.492873 
435.374228  	64.749918 
436.811106  	65.217225 
438.247985  	65.086484 
439.684864  	65.673148 
441.121742  	65.737314 
442.558621  	64.943101 
443.995500  	65.251224 
445.432378  	65.062237 
446.869257  	64.630762 
448.306136  	65.049933 
449.743014  	64.673699 
451.179893  	63.857674 
452.616772  	63.002815 
454.053650  	62.165901 
455.490529  	61.743489 
456.927407  	60.791717 
458.364286  	60.228855 
459.801165  	60.202407 
461.238043  	58.917739 
462.674922  	58.090322 
464.111801  	58.294358 
465.548679  	57.589521 
466.985558  	56.897504 
468.422437  	56.819690 
469.859315  	56.733738 
471.296194  	57.272589 
472.733072  	58.486832 
474.169951  	59.362940 
475.606830  	59.731367 
477.043708  	60.431634 
478.480587  	61.633329 
479.917466  	62.212512 
481.354344  	62.574487 
482.791223  	63.370273 
484.228102  	64.072868 
485.664980  	64.826615 
487.101859  	65.416219 
488.538738  	65.720264 
489.975616  	66.090775 
491.412495  	66.195900 
492.849373  	66.538415 
494.286252  	67.053180 
495.723131  	66.802532 
497.160009  	66.768881 
498.596888  	67.084291 
500.033767  	66.805252 
501.470645  	66.516320 
502.907524  	66.305043 
504.344403  	65.996182 
505.781281  	65.933667 
507.218160  	65.950642 
508.655038  	66.180475 
510.091917  	66.274944 
511.528796  	65.952621 
512.965674  	65.952061 
514.402553  	65.773083 
515.839432  	65.032464 
517.276310  	64.686284 
518.713189  	64.514342 
520.150068  	64.168153 
521.586946  	63.950557 
523.023825  	63.543523 
524.460704  	62.992743 
525.897582  	62.353571 
527.334461  	61.651109 
528.771339  	61.209419 
530.208218  	60.700353 
531.645097  	60.157129 
533.081975  	59.950071 
534.518854  	59.716914 
535.955733  	59.461572 
537.392611  	59.525557 
538.829490  	59.725398 
540.266369  	59.824773 
541.703247  	59.913012 
543.140126  	60.272052 
544.577004  	60.668250 
546.013883  	60.687037 
547.450762  	60.662909 
548.887640  	60.736043 
550.324519  	60.684066 
551.761398  	60.672937 
553.198276  	60.716886 
554.635155  	60.747507 
556.072034  	60.873856 
557.508912  	61.072555 
558.945791  	61.301599 
560.382670  	61.601583 
561.819548  	62.134091 
563.256427  	62.810314 
564.693305  	63.272907 
566.130184  	63.570992 
567.567063  	63.828024 
569.003941  	64.082499 
570.440820  	64.429889 
571.877699  	64.744986 
573.314577  	65.105793 
574.751456  	65.544632 
576.188335  	65.988444 
577.625213  	66.742592 
579.062092  	67.551009 
580.498970  	68.179621 
581.935849  	69.061552 
583.372728  	69.904893 
584.809606  	70.450410 
586.246485  	71.051794 
587.683364  	71.516875 
589.120242  	71.783601 
590.557121  	72.033335 
591.994000  	72.238479 
593.430878  	72.597531 
594.867757  	72.855057 
596.304636  	72.868780 
597.741514  	73.062813 
599.178393  	73.157766 
600.615271  	73.072799 
602.052150  	73.216355 
603.489029  	73.253866 
604.925907  	73.193187 
606.362786  	73.165086 
607.799665  	73.065880 
609.236543  	73.041583 
610.673422  	73.110135 
612.110301  	73.204208 
613.547179  	73.353059 
614.984058  	73.476706 
616.420936  	73.579930 
617.857815  	73.752043 
619.294694  	73.943004 
620.731572  	74.168536 
622.168451  	74.340030 
623.605330  	74.446078 
625.042208  	74.576381 
626.479087  	74.680127 
627.915966  	74.712709 
629.352844  	74.729311 
630.789723  	74.572678 
632.226602  	74.466461 
633.663480  	74.398040 
635.100359  	74.296929 
636.537237  	74.174020 
637.974116  	74.010520 
639.410995  	73.852809 
640.847873  	73.742210 
642.284752  	73.583439 
643.721631  	73.233356 
645.158509  	72.824952 
646.595388  	72.091958 
648.032267  	71.168084 
649.469145  	70.227502 
650.906024  	69.576268 
652.342902  	69.568830 
653.779781  	70.305384 
655.216660  	71.473391 
656.653538  	72.613997 
658.090417  	73.458429 
659.527296  	73.883256 
660.964174  	74.092935 
662.401053  	74.090620 
663.837932  	74.052501 
665.274810  	73.897032 
666.711689  	73.891606 
668.148568  	73.503026 
669.585446  	73.067918 
671.022325  	72.957340 
672.459203  	72.912774 
673.896082  	72.816292 
675.332961  	72.764171 
676.769839  	72.517595 
678.206718  	72.213292 
679.643597  	71.927521 
681.080475  	71.539787 
682.517354  	70.982124 
683.954233  	70.286192 
685.391111  	69.536428 
686.827990  	68.778800 
688.264868  	67.672627 
689.701747  	66.604871 
691.138626  	65.629366 
692.575504  	64.623776 
694.012383  	63.753806 
695.449262  	62.851107 
696.886140  	61.885212 
698.323019  	60.999332 
699.759898  	59.806790 
701.196776  	58.599133 
702.633655  	57.512216 
704.070533  	57.025553 
705.507412  	57.628922 
706.944291  	59.174163 
708.381169  	61.396673 
709.818048  	63.955182 
711.254927  	66.401796 
712.691805  	68.933648 
714.128684  	71.071846 
715.565563  	72.691754 
717.002441  	74.197134 
718.439320  	74.568284 
719.876199  	74.908337 
721.313077  	74.963301 
722.749956  	75.036614 
724.186834  	74.189052 
725.623713  	73.101038 
727.060592  	71.681977 
728.497470  	70.012966 
729.934349  	68.032158 
731.371228  	65.412310 
732.808106  	62.186605 
734.244985  	58.408334 
735.681864  	54.538160 
737.118742  	51.293836 
738.555621  	48.865720 
739.992499  	47.477089 
741.429378  	47.144283 
742.866257  	47.693442 
744.303135  	49.073191 
745.740014  	51.047155 
747.176893  	53.379819 
748.613771  	55.901259 
750.050650  	58.403313 
751.487529  	60.756709 
752.924407  	62.955619 
754.361286  	64.979516 
755.798165  	66.753487 
757.235043  	68.273048 
758.671922  	69.567116 
760.108800  	70.598882 
761.545679  	71.319397 
762.982558  	71.777414 
764.419436  	72.010058 
765.856315  	72.058888 
767.293194  	72.116367 
768.730072  	72.206730 
770.166951  	72.294608 
771.603830  	72.540015 
773.040708  	72.919925 
774.477587  	73.334183 
775.914465  	73.800308 
777.351344  	74.256652 
778.788223  	74.701714 
780.225101  	75.141041 
781.661980  	75.488522 
783.098859  	75.756306 
784.535737  	75.919751 
785.972616  	76.041923 
787.409495  	76.265803 
788.846373  	76.440330 
790.283252  	76.535565 
791.720131  	76.656700 
793.157009  	76.564804 
794.593888  	76.154486 
796.030766  	75.618590 
797.467645  	75.094094 
798.904524  	74.643188 
800.341402  	74.170533 
801.778281  	73.442897 
803.215160  	72.161333 
804.652038  	70.235615 
806.088917  	68.130002 
807.525796  	66.550780 
808.962674  	66.152939 
810.399553  	67.094703 
811.836431  	68.971855 
813.273310  	71.329039 
814.710189  	73.768346 
816.147067  	75.838958 
817.583946  	77.208326 
819.020825  	77.806844 
820.457703  	77.645179 
821.894582  	76.850070 
823.331461  	75.527496 
824.768339  	73.836406 
826.205218  	72.073339 
827.642097  	70.491358 
829.078975  	69.344881 
830.515854  	68.786388 
831.952732  	68.911009 
833.389611  	69.694140 
834.826490  	70.882883 
836.263368  	72.263677 
837.700247  	73.772279 
839.137126  	75.264600 
840.574004  	76.586590 
842.010883  	77.775224 
843.447762  	78.786664 
844.884640  	79.577203 
846.321519  	80.216221 
847.758397  	80.688793 
849.195276  	81.078683 
850.632155  	81.431266 
852.069033  	81.638808 
853.505912  	81.752545 
854.942791  	81.817472 
856.379669  	81.820083 
857.816548  	81.839010 
859.253427  	81.884474 
860.690305  	81.951898 
862.127184  	82.042482 
863.564063  	82.096632 
865.000941  	82.143996 
866.437820  	82.192099 
867.874698  	82.159480 
869.311577  	82.017188 
870.748456  	81.747785 
872.185334  	81.425419 
873.622213  	81.186519 
875.059092  	80.992320 
876.495970  	80.755485 
877.932849  	80.532904 
879.369728  	80.395006 
880.806606  	80.338039 
882.243485  	80.319619 
883.680363  	80.294408 
885.117242  	80.238527 
886.554121  	80.093897 
887.990999  	79.842336 
889.427878  	79.564757 
890.864757  	79.273502 
892.301635  	78.955424 
893.738514  	78.698473 
895.175393  	78.495182 
896.612271  	78.256262 
898.049150  	77.984389 
899.486029  	77.682811 
900.922907  	77.337691 
902.359786  	76.939140 
903.796664  	76.457677 
905.233543  	75.894485 
906.670422  	75.238150 
908.107300  	74.527924 
909.544179  	73.875687 
910.981058  	73.333259 
912.417936  	73.028758 
913.854815  	73.031568 
915.291694  	73.180347 
916.728572  	73.373598 
918.165451  	73.559682 
919.602329  	73.703414 
921.039208  	73.812613 
922.476087  	73.844162 
923.912965  	73.829226 
925.349844  	73.772619 
926.786723  	73.597463 
928.223601  	73.379138 
929.660480  	73.161271 
931.097359  	72.930885 
932.534237  	72.779469 
933.971116  	72.702437 
935.407995  	72.716637 
936.844873  	72.878216 
938.281752  	73.121744 
939.718630  	73.456804 
941.155509  	73.863077 
942.592388  	74.254093 
944.029266  	74.608840 
945.466145  	74.838803 
946.903024  	74.905762 
948.339902  	74.839598 
949.776781  	74.615324 
951.213660  	74.280888 
952.650538  	73.839614 
954.087417  	73.242673 
955.524295  	72.526969 
956.961174  	71.626221 
958.398053  	70.578687 
959.834931  	69.540396 
961.271810  	68.453938 
962.708689  	67.411253 
964.145567  	66.488351 
965.582446  	65.546839 
967.019325  	64.719756 
968.456203  	64.009162 
969.893082  	63.299185 
971.329961  	62.708823 
972.766839  	62.121864 
974.203718  	61.461132 
975.640596  	60.764829 
977.077475  	59.905916 
978.514354  	58.985051 
979.951232  	58.081439 
981.388111  	57.256884 
982.824990  	56.765676 
984.261868  	56.577988 
985.698747  	56.735752 
987.135626  	57.263386 
988.572504  	57.891187 
990.009383  	58.627933 
991.446261  	59.404379 
992.883140  	60.040226 
994.320019  	60.562145 
995.756897  	60.843626 
997.193776  	60.872373 
998.630655  	60.701749 
1000.067533  	60.194965 
1001.504412  	59.449296 
1002.941291  	58.516953 
1004.378169  	57.413335 
1005.815048  	56.411027 
1007.251926  	55.460229 
1008.688805  	54.575375 
1010.125684  	54.105331 
1011.562562  	54.162000 
1012.999441  	54.689685 
1014.436320  	55.242781 
1015.873198  	55.480315 
1017.310077  	55.521441 
1018.746956  	55.185272 
1020.183834  	54.485039 
1021.620713  	53.621734 
1023.057592  	52.409587 
1024.494470  	51.034120 
1025.931349  	49.619346 
1027.368227  	48.051523 
1028.805106  	46.711328 
1030.241985  	45.556291 
1031.678863  	44.444362 
1033.115742  	43.547031 
1034.552621  	42.581880 
1035.989499  	41.707324 
1037.426378  	41.177938 
1038.863257  	40.883814 
1040.300135  	41.184408 
1041.737014  	41.890268 
1043.173892  	42.649627 
1044.610771  	43.581395 
1046.047650  	44.309157 
1047.484528  	44.809015 
1048.921407  	45.248204 
1050.358286  	45.377248 
1051.795164  	45.407211 
1053.232043  	45.280670 
1054.668922  	44.787385 
1056.105800  	44.184678 
1057.542679  	43.293700 
1058.979558  	42.233159 
1060.416436  	41.299915 
1061.853315  	40.249563 
1063.290193  	39.430143 
1064.727072  	38.948143 
1066.163951  	38.592095 
1067.600829  	38.776056 
1069.037708  	39.342664 
1070.474587  	40.183152 
1071.911465  	41.418682 
1073.348344  	42.672995 
1074.785223  	44.149006 
1076.222101  	45.934465 
1077.658980  	47.768547 
1079.095858  	49.843155 
1080.532737  	51.988472 
1081.969616  	54.050294 
1083.406494  	56.052923 
1084.843373  	57.729328 
1086.280252  	59.123183 
1087.717130  	60.239460 
1089.154009  	60.921612 
1090.590888  	61.265798 
1092.027766  	61.168229 
1093.464645  	60.650277 
1094.901524  	59.950074 
1096.338402  	58.981877 
1097.775281  	57.875906 
1099.212159  	56.728571 
1100.649038  	55.385737 
1102.085917  	54.058151 
1103.522795  	52.687677 
1104.959674  	51.228493 
1106.396553  	49.926893 
1107.833431  	48.531099 
1109.270310  	47.098856 
1110.707189  	45.785829 
1112.144067  	44.446615 
1113.580946  	43.501423 
1115.017824  	42.997480 
1116.454703  	42.801320 
1117.891582  	43.094359 
1119.328460  	43.493871 
1120.765339  	44.025251 
1122.202218  	44.842587 
1123.639096  	45.614118 
1125.075975  	46.488564 
1126.512854  	47.380599 
1127.949732  	48.109856 
1129.386611  	48.879925 
1130.823490  	49.442284 
1132.260368  	49.813696 
1133.697247  	50.195577 
1135.134125  	50.392340 
1136.571004  	50.639309 
1138.007883  	51.051756 
1139.444761  	51.576904 
1140.881640  	52.544121 
1142.318519  	53.867204 
1143.755397  	55.494053 
1145.192276  	57.557658 
1146.629155  	59.849530 
1148.066033  	62.310531 
1149.502912  	64.791279 
1150.939790  	67.012963 
1152.376669  	68.898561 
1153.813548  	70.305743 
1155.250426  	71.144912 
1156.687305  	71.477133 
1158.124184  	71.292475 
1159.561062  	70.631074 
1160.997941  	69.608830 
1162.434820  	68.337714 
1163.871698  	67.054237 
1165.308577  	65.881584 
1166.745456  	64.874363 
1168.182334  	64.025004 
1169.619213  	63.059761 
1171.056091  	61.914474 
1172.492970  	60.575941 
1173.929849  	58.952014 
1175.366727  	57.232065 
1176.803606  	55.388770 
1178.240485  	53.465399 
1179.677363  	51.836913 
1181.114242  	50.588406 
1182.551121  	50.000429 
1183.987999  	50.135200 
1185.424878  	50.640222 
1186.861756  	51.572015 
1188.298635  	52.701619 
1189.735514  	53.811154 
1191.172392  	55.042568 
1192.609271  	56.210151 
1194.046150  	57.313814 
1195.483028  	58.409163 
1196.919907  	59.375728 
1198.356786  	60.374494 
1199.793664  	61.354217 
1201.230543  	62.221845 
1202.667422  	63.122371 
1204.104300  	63.956756 
1205.541179  	64.689076 
1206.978057  	65.341788 
1208.414936  	65.830914 
1209.851815  	66.225840 
1211.288693  	66.469200 
1212.725572  	66.510572 
1214.162451  	66.459276 
1215.599329  	66.235409 
1217.036208  	65.844470 
1218.473087  	65.316860 
1219.909965  	64.532760 
1221.346844  	63.582938 
1222.783722  	62.444037 
1224.220601  	61.036401 
1225.657480  	59.534623 
1227.094358  	57.877563 
1228.531237  	56.093085 
1229.968116  	54.319470 
1231.404994  	52.428172 
1232.841873  	50.599088 
1234.278752  	48.834582 
1235.715630  	46.983592 
1237.152509  	45.293208 
1238.589388  	43.587444 
1240.026266  	41.880747 
1241.463145  	40.408040 
1242.900023  	38.910136 
1244.336902  	37.704017 
1245.773781  	36.899345 
1247.210659  	36.217911 
1248.647538  	35.994183 
1250.084417  	35.989301 
1251.521295  	36.097606 
1252.958174  	36.571519 
1254.395053  	37.011537 
1255.831931  	37.589254 
1257.268810  	38.315076 
1258.705688  	38.818717 
1260.142567  	39.498843 
1261.579446  	40.198268 
1263.016324  	40.742214 
1264.453203  	41.429361 
1265.890082  	41.935163 
1267.326960  	42.365737 
1268.763839  	42.820161 
1270.200718  	43.005622 
1271.637596  	43.271319 
1273.074475  	43.515964 
1274.511353  	43.612917 
1275.948232  	43.896398 
1277.385111  	44.094695 
1278.821989  	44.324577 
1280.258868  	44.750436 
1281.695747  	45.079333 
1283.132625  	45.619327 
1284.569504  	46.320072 
1286.006383  	47.033379 
1287.443261  	48.100764 
1288.880140  	49.336165 
1290.317019  	50.758880 
1291.753897  	52.446895 
1293.190776  	54.088896 
1294.627654  	55.801825 
1296.064533  	57.529293 
1297.501412  	59.184408 
1298.938290  	60.984151 
1300.375169  	62.795516 
1301.812048  	64.675858 
1303.248926  	66.741818 
1304.685805  	68.714447 
1306.122684  	70.780852 
1307.559562  	72.592880 
1308.996441  	74.339990 
1310.433319  	76.096483 
1311.870198  	77.021811 
1313.307077  	77.900703 
1314.743955  	78.678942 
1316.180834  	79.261578 
1317.617713  	79.650307 
1319.054591  	80.143820 
1320.491470  	80.674888 
1321.928349  	81.251585 
1323.365227  	81.867272 
1324.802106  	82.490652 
1326.238985  	83.129723 
1327.675863  	83.631167 
1329.112742  	84.115886 
1330.549620  	84.575639 
1331.986499  	85.037410 
1333.423378  	85.466383 
1334.860256  	85.667096 
1336.297135  	85.817049 
1337.734014  	85.900708 
1339.170892  	85.957722 
1340.607771  	86.189332 
1342.044650  	86.613647 
1343.481528  	86.939711 
1344.918407  	87.129503 
1346.355285  	87.339887 
1347.792164  	87.481689 
1349.229043  	87.573512 
1350.665921  	87.698157 
1352.102800  	87.773606 
1353.539679  	87.690853 
1354.976557  	87.614136 
1356.413436  	87.510216 
1357.850315  	87.573611 
1359.287193  	87.356060 
1360.724072  	86.958886 
1362.160951  	86.476651 
1363.597829  	86.139918 
1365.034708  	86.165480 
1366.471586  	86.265583 
1367.908465  	86.269297 
1369.345344  	86.236535 
1370.782222  	86.346185 
1372.219101  	86.462828 
1373.655980  	86.487539 
1375.092858  	86.487559 
1376.529737  	86.543851 
1377.966616  	86.615106 
1379.403494  	86.657585 
1380.840373  	86.676471 
1382.277251  	86.603671 
1383.714130  	86.505123 
1385.151009  	86.444237 
1386.587887  	86.332697 
1388.024766  	86.265468 
1389.461645  	86.281290 
1390.898523  	86.213186 
1392.335402  	85.932811 
1393.772281  	85.535973 
1395.209159  	84.892230 
1396.646038  	84.412097 
1398.082917  	83.998882 
1399.519795  	83.520533 
1400.956674  	83.078000 
1402.393552  	82.510811 
1403.830431  	81.490265 
1405.267310  	79.847653 
1406.704188  	78.156332 
1408.141067  	77.386601 
1409.577946  	77.315131 
1411.014824  	77.885041 
1412.451703  	79.424028 
1413.888582  	81.141898 
1415.325460  	82.834068 
1416.762339  	84.549855 
1418.199217  	85.876701 
1419.636096  	87.339417 
1421.072975  	88.380163 
1422.509853  	88.652885 
1423.946732  	88.847747 
1425.383611  	88.683488 
1426.820489  	88.312342 
1428.257368  	88.055215 
1429.694247  	87.590661 
1431.131125  	87.042278 
1432.568004  	86.535289 
1434.004883  	86.125791 
1435.441761  	85.962251 
1436.878640  	85.319140 
1438.315518  	84.667319 
1439.752397  	84.208871 
1441.189276  	83.574568 
1442.626154  	83.012742 
1444.063033  	82.426973 
1445.499912  	81.493829 
1446.936790  	80.914546 
1448.373669  	80.783570 
1449.810548  	81.283982 
1451.247426  	81.861110 
1452.684305  	82.406220 
1454.121183  	82.923796 
1455.558062  	83.417124 
1456.994941  	83.886296 
1458.431819  	84.120053 
1459.868698  	84.234106 
1461.305577  	84.788360 
1462.742455  	85.330427 
1464.179334  	85.904340 
1465.616213  	86.592469 
1467.053091  	86.859826 
1468.489970  	87.303147 
1469.926849  	87.957626 
1471.363727  	88.246809 
1472.800606  	88.485030 
1474.237484  	89.208419 
1475.674363  	89.600188 
1477.111242  	90.162417 
1478.548120  	90.555994 
1479.984999  	90.759815 
1481.421878  	91.052949 
1482.858756  	91.101671 
1484.295635  	90.857308 
1485.732514  	90.348127 
1487.169392  	89.491022 
1488.606271  	88.753063 
1490.043149  	88.406154 
1491.480028  	88.769432 
1492.916907  	89.356608 
1494.353785  	89.933176 
1495.790664  	90.435210 
1497.227543  	90.314413 
1498.664421  	89.560669 
1500.101300  	88.446889 
1501.538179  	86.781162 
1502.975057  	84.805065 
1504.411936  	83.364523 
1505.848815  	82.182318 
1507.285693  	77.227335 
1508.722572  	74.910359 
1510.159450  	75.050885 
1511.596329  	75.933801 
1513.033208  	78.674281 
1514.470086  	81.527341 
1515.906965  	83.846217 
1517.343844  	87.419556 
1518.780722  	89.803463 
1520.217601  	90.852384 
1521.654480  	92.152751 
1523.091358  	92.592153 
1524.528237  	92.852700 
1525.965115  	93.442546 
1527.401994  	93.344860 
1528.838873  	93.428842 
1530.275751  	93.835290 
1531.712630  	93.991097 
1533.149509  	94.144486 
1534.586387  	93.991350 
1536.023266  	93.965276 
1537.460145  	94.442534 
1538.897023  	95.531953 
1540.333902  	94.586845 
1541.770780  	94.166296 
1543.207659  	94.071075 
1544.644538  	93.910671 
1546.081416  	94.002307 
1547.518295  	94.215052 
1548.955174  	94.276311 
1550.392052  	94.182634 
1551.828931  	94.378337 
1553.265810  	94.631807 
1554.702688  	94.627558 
1556.139567  	94.731138 
1557.576446  	95.520471 
1559.013324  	95.354963 
1560.450203  	94.470482 
1561.887081  	94.414308 
1563.323960  	94.556049 
1564.760839  	94.533960 
1566.197717  	94.259543 
1567.634596  	94.400938 
1569.071475  	94.555219 
1570.508353  	94.079315 
1571.945232  	93.311266 
1573.382111  	92.660603 
1574.818989  	92.383298 
1576.255868  	90.799949 
1577.692746  	87.560887 
1579.129625  	86.297764 
1580.566504  	85.880787 
1582.003382  	86.211080 
1583.440261  	87.535509 
1584.877140  	89.025439 
1586.314018  	90.513264 
1587.750897  	91.861677 
1589.187776  	91.364073 
1590.624654  	92.061591 
1592.061533  	91.645352 
1593.498412  	90.843601 
1594.935290  	89.474217 
1596.372169  	87.672607 
1597.809047  	86.262198 
1599.245926  	85.479671 
1600.682805  	85.558582 
1602.119683  	86.018377 
1603.556562  	86.448956 
1604.993441  	86.704710 
1606.430319  	86.873130 
1607.867198  	86.995248 
1609.304077  	87.271572 
1610.740955  	87.578639 
1612.177834  	87.813329 
1613.614712  	88.142192 
1615.051591  	88.370077 
1616.488470  	88.502010 
1617.925348  	88.304190 
1619.362227  	88.186462 
1620.799106  	88.423294 
1622.235984  	89.010532 
1623.672863  	89.052344 
1625.109742  	89.063923 
1626.546620  	89.114411 
1627.983499  	88.917711 
1629.420378  	88.384451 
1630.857256  	87.968180 
1632.294135  	87.271155 
1633.731013  	87.018928 
1635.167892  	86.731271 
1636.604771  	86.004743 
1638.041649  	86.181896 
1639.478528  	87.000677 
1640.915407  	88.082334 
1642.352285  	88.587594 
1643.789164  	89.252960 
1645.226043  	90.224866 
1646.662921  	90.553060 
1648.099800  	90.241098 
1649.536678  	89.811464 
1650.973557  	90.201956 
1652.410436  	91.726231 
1653.847314  	90.451304 
1655.284193  	89.712686 
1656.721072  	89.710034 
1658.157950  	89.651213 
1659.594829  	89.779613 
1661.031708  	89.759855 
1662.468586  	89.767012 
1663.905465  	89.737301 
1665.342344  	89.372122 
1666.779222  	89.161232 
1668.216101  	89.133827 
1669.652979  	88.642590 
1671.089858  	88.308938 
1672.526737  	87.958939 
1673.963615  	87.599519 
1675.400494  	87.406145 
1676.837373  	86.667136 
1678.274251  	86.177768 
1679.711130  	85.526125 
1681.148009  	84.537909 
1682.584887  	84.420292 
1684.021766  	84.399214 
1685.458644  	82.105174 
1686.895523  	81.405379 
1688.332402  	80.277095 
1689.769280  	78.969828 
1691.206159  	77.930082 
1692.643038  	76.646675 
1694.079916  	75.765165 
1695.516795  	74.598054 
1696.953674  	70.518752 
1698.390552  	69.025649 
1699.827431  	67.567435 
1701.264310  	63.114813 
1702.701188  	60.584198 
1704.138067  	57.624743 
1705.574945  	54.736888 
1707.011824  	52.021128 
1708.448703  	48.740440 
1709.885581  	46.636632 
1711.322460  	44.307388 
1712.759339  	41.631511 
1714.196217  	40.311519 
1715.633096  	38.424886 
1717.069975  	36.889155 
1718.506853  	37.456134 
1719.943732  	36.365656 
1721.380610  	36.212682 
1722.817489  	37.068850 
1724.254368  	37.715091 
1725.691246  	39.207725 
1727.128125  	40.789421 
1728.565004  	42.070433 
1730.001882  	44.276515 
1731.438761  	46.224711 
1732.875640  	47.590194 
1734.312518  	50.979635 
1735.749397  	53.650781 
1737.186276  	54.990247 
1738.623154  	57.165713 
1740.060033  	59.823926 
1741.496911  	62.135895 
1742.933790  	64.328083 
1744.370669  	66.655021 
1745.807547  	69.200692 
1747.244426  	71.482741 
1748.681305  	73.881795 
1750.118183  	76.658354 
1751.555062  	78.899530 
1752.991941  	81.278802 
1754.428819  	83.532244 
1755.865698  	84.946014 
1757.302576  	86.491994 
1758.739455  	88.116829 
1760.176334  	89.262466 
1761.613212  	90.762440 
1763.050091  	91.661026 
1764.486970  	92.709568 
1765.923848  	93.974063 
1767.360727  	94.326622 
1768.797606  	94.659054 
1770.234484  	95.265097 
1771.671363  	95.564810 
1773.108242  	95.894035 
1774.545120  	95.771374 
1775.981999  	95.863886 
1777.418877  	96.297128 
1778.855756  	96.465110 
1780.292635  	96.626896 
1781.729513  	96.954404 
1783.166392  	97.071202 
1784.603271  	97.344188 
1786.040149  	97.549067 
1787.477028  	97.629359 
1788.913907  	97.892016 
1790.350785  	98.009270 
1791.787664  	98.003703 
1793.224542  	98.094992 
1794.661421  	97.885076 
1796.098300  	97.954486 
1797.535178  	98.196470 
1798.972057  	98.270578 
1800.408936  	98.386412 
1801.845814  	98.291732 
1803.282693  	98.334240 
1804.719572  	98.621491 
1806.156450  	98.607182 
1807.593329  	98.627900 
1809.030207  	98.802216 
1810.467086  	98.776640 
1811.903965  	98.820895 
1813.340843  	98.795011 
1814.777722  	98.859972 
1816.214601  	99.030812 
1817.651479  	98.960321 
1819.088358  	99.009617 
1820.525237  	99.133150 
1821.962115  	99.064486 
1823.398994  	99.205234 
1824.835873  	99.160363 
1826.272751  	98.993956 
1827.709630  	99.213636 
1829.146508  	99.257610 
1830.583387  	99.126561 
1832.020266  	99.071319 
1833.457144  	98.987931 
1834.894023  	99.216711 
1836.330902  	99.279769 
1837.767780  	99.181110 
1839.204659  	99.375281 
1840.641538  	99.383239 
1842.078416  	99.406431 
1843.515295  	99.596243 
1844.952173  	99.306388 
1846.389052  	99.216751 
1847.825931  	99.278657 
1849.262809  	99.239533 
1850.699688  	99.357862 
1852.136567  	99.320659 
1853.573445  	99.355021 
1855.010324  	99.573531 
1856.447203  	99.410026 
1857.884081  	99.424714 
1859.320960  	99.448109 
1860.757839  	99.335661 
1862.194717  	99.614254 
1863.631596  	99.625630 
1865.068474  	99.569542 
1866.505353  	99.783583 
1867.942232  	99.604715 
1869.379110  	99.483358 
1870.815989  	99.436331 
1872.252868  	99.355524 
1873.689746  	99.694511 
1875.126625  	99.634523 
1876.563504  	99.459485 
1878.000382  	99.785699 
1879.437261  	99.642992 
1880.874139  	99.660341 
1882.311018  	99.835913 
1883.747897  	99.610154 
1885.184775  	99.794523 
1886.621654  	99.834259 
1888.058533  	99.752959 
1889.495411  	99.808159 
1890.932290  	99.579231 
1892.369169  	99.599866 
1893.806047  	99.808774 
1895.242926  	99.676867 
1896.679805  	99.743514 
1898.116683  	99.818898 
1899.553562  	99.766153 
1900.990440  	99.960104 
1902.427319  	99.822225 
1903.864198  	99.841587 
1905.301076  	100.056269 
1906.737955  	99.887331 
1908.174834  	99.985751 
1909.611712  	100.006062 
1911.048591  	99.850802 
1912.485470  	100.095735 
1913.922348  	100.062495 
1915.359227  	100.140845 
1916.796105  	100.319605 
1918.232984  	100.036114 
1919.669863  	100.083311 
1921.106741  	100.218247 
1922.543620  	100.022038 
1923.980499  	100.105483 
1925.417377  	100.016211 
1926.854256  	100.092161 
1928.291135  	100.214222 
1929.728013  	100.190737 
1931.164892  	100.219635 
1932.601771  	100.293561 
1934.038649  	100.109125 
1935.475528  	100.301969 
1936.912406  	100.229935 
1938.349285  	100.105771 
1939.786164  	100.296764 
1941.223042  	100.120587 
1942.659921  	100.088766 
1944.096800  	100.114768 
1945.533678  	99.872458 
1946.970557  	100.244856 
1948.407436  	100.460289 
1949.844314  	100.196497 
1951.281193  	100.422072 
1952.718071  	100.222593 
1954.154950  	100.257666 
1955.591829  	100.466868 
1957.028707  	100.329182 
1958.465586  	100.729869 
1959.902465  	100.755644 
1961.339343  	100.457085 
1962.776222  	100.803824 
1964.213101  	100.634977 
1965.649979  	100.588178 
1967.086858  	100.825362 
1968.523737  	100.471972 
1969.960615  	100.774080 
1971.397494  	100.847219 
1972.834372  	100.618285 
1974.271251  	101.320157 
1975.708130  	101.148021 
1977.145008  	101.095488 
1978.581887  	101.188905 
1980.018766  	100.354273 
1981.455644  	100.577190 
1982.892523  	100.693319 
1984.329402  	100.308186 
1985.766280  	100.588290 
1987.203159  	100.460834 
1988.640037  	100.328409 
1990.076916  	100.559801 
1991.513795  	100.254599 
1992.950673  	100.367047 
1994.387552  	100.493031 
1995.824431  	100.366395 
1997.261309  	100.839668 
1998.698188  	100.381162 
2000.135067  	100.358178 
2001.571945  	101.198572 
2003.008824  	100.717804 
2004.445703  	101.013247 
2005.882581  	101.509030 
2007.319460  	100.958769 
2008.756338  	101.497944 
2010.193217  	101.155247 
2011.630096  	100.753641 
2013.066974  	101.476625 
2014.503853  	100.917314 
2015.940732  	101.075854 
2017.377610  	101.488711 
2018.814489  	100.569954 
2020.251368  	100.926969 
2021.688246  	100.988389 
2023.125125  	100.832104 
2024.562003  	101.553431 
2025.998882  	100.955475 
2027.435761  	101.062364 
2028.872639  	101.520738 
2030.309518  	100.680310 
2031.746397  	101.082966 
2033.183275  	101.015961 
2034.620154  	100.387777 
2036.057033  	100.920317 
2037.493911  	100.531001 
2038.930790  	100.468894 
2040.367669  	100.771512 
2041.804547  	100.264679 
2043.241426  	100.638311 
2044.678304  	100.476052 
2046.115183  	99.988226 
2047.552062  	100.533018 
2048.988940  	100.136236 
2050.425819  	99.963045 
2051.862698  	100.411280 
2053.299576  	100.131814 
2054.736455  	100.282285 
2056.173334  	100.290836 
2057.610212  	99.978485 
2059.047091  	100.334264 
2060.483969  	100.145872 
2061.920848  	100.003891 
2063.357727  	100.310504 
2064.794605  	99.974003 
2066.231484  	100.031635 
2067.668363  	100.178761 
2069.105241  	99.979221 
2070.542120  	100.277675 
2071.978999  	100.167313 
2073.415877  	100.019433 
2074.852756  	100.279231 
2076.289635  	100.037370 
2077.726513  	100.106547 
2079.163392  	100.258104 
2080.600270  	99.993579 
2082.037149  	100.215501 
2083.474028  	100.278866 
2084.910906  	100.134367 
2086.347785  	100.247338 
2087.784664  	100.055579 
2089.221542  	100.092045 
2090.658421  	100.209364 
2092.095300  	100.039457 
2093.532178  	100.337465 
2094.969057  	100.457995 
2096.405935  	100.263705 
2097.842814  	100.355601 
2099.279693  	100.249723 
2100.716571  	100.309153 
2102.153450  	100.385400 
2103.590329  	100.152685 
2105.027207  	100.296662 
2106.464086  	100.318498 
2107.900965  	100.229161 
2109.337843  	100.401197 
2110.774722  	100.256731 
2112.211600  	100.328798 
2113.648479  	100.464376 
2115.085358  	100.201596 
2116.522236  	100.369023 
2117.959115  	100.525951 
2119.395994  	100.516986 
2120.832872  	100.752043 
2122.269751  	100.568786 
2123.706630  	100.566975 
2125.143508  	100.850569 
2126.580387  	100.686588 
2128.017266  	100.854508 
2129.454144  	101.008671 
2130.891023  	100.930525 
2132.327901  	101.326915 
2133.764780  	101.288129 
2135.201659  	101.223162 
2136.638537  	101.453334 
2138.075416  	101.071435 
2139.512295  	101.226308 
2140.949173  	101.408713 
2142.386052  	101.160134 
2143.822931  	101.605043 
2145.259809  	101.331053 
2146.696688  	101.017244 
2148.133566  	101.631144 
2149.570445  	101.369777 
2151.007324  	101.470579 
2152.444202  	101.976067 
2153.881081  	101.736549 
2155.317960  	102.188594 
2156.754838  	102.177145 
2158.191717  	101.973116 
2159.628596  	102.406785 
2161.065474  	101.272217 
2162.502353  	100.954846 
2163.939232  	101.187805 
2165.376110  	100.587671 
2166.812989  	100.951807 
2168.249867  	101.050170 
2169.686746  	100.676793 
2171.123625  	100.879294 
2172.560503  	100.683340 
2173.997382  	100.955875 
2175.434261  	101.229258 
2176.871139  	100.660002 
2178.308018  	100.916850 
2179.744897  	100.953676 
2181.181775  	100.564483 
2182.618654  	100.731543 
2184.055532  	100.380466 
2185.492411  	100.444117 
2186.929290  	100.742714 
2188.366168  	100.342219 
2189.803047  	100.598613 
2191.239926  	100.642399 
2192.676804  	100.302813 
2194.113683  	100.582954 
2195.550562  	100.352996 
2196.987440  	100.334560 
2198.424319  	100.718377 
2199.861198  	100.379733 
2201.298076  	100.482798 
2202.734955  	100.717223 
2204.171833  	100.546541 
2205.608712  	100.739074 
2207.045591  	100.593206 
2208.482469  	100.524346 
2209.919348  	100.716538 
2211.356227  	100.372540 
2212.793105  	100.425606 
2214.229984  	100.586598 
2215.666863  	100.432788 
2217.103741  	100.647082 
2218.540620  	100.549446 
2219.977498  	100.451032 
2221.414377  	100.631163 
2222.851256  	100.427648 
2224.288134  	100.533886 
2225.725013  	100.588760 
2227.161892  	100.293392 
2228.598770  	100.417546 
2230.035649  	100.306527 
2231.472528  	100.186171 
2232.909406  	100.391159 
2234.346285  	100.244976 
2235.783164  	100.347790 
2237.220042  	100.451980 
2238.656921  	100.180577 
2240.093799  	100.278037 
2241.530678  	100.194048 
2242.967557  	100.032242 
2244.404435  	100.208157 
2245.841314  	100.019765 
2247.278193  	99.936952 
2248.715071  	100.063324 
2250.151950  	99.982266 
2251.588829  	100.055647 
2253.025707  	100.057061 
2254.462586  	99.988710 
2255.899464  	100.067257 
2257.336343  	100.003176 
2258.773222  	100.000291 
2260.210100  	100.053868 
2261.646979  	99.947369 
2263.083858  	99.974745 
2264.520736  	100.008207 
2265.957615  	99.988116 
2267.394494  	100.033504 
2268.831372  	99.924632 
2270.268251  	99.888152 
2271.705130  	99.924931 
2273.142008  	99.837345 
2274.578887  	99.856860 
2276.015765  	99.853677 
2277.452644  	99.781549 
2278.889523  	99.823570 
2280.326401  	99.767789 
2281.763280  	99.715806 
2283.200159  	99.716162 
2284.637037  	99.605765 
2286.073916  	99.590046 
2287.510795  	99.570657 
2288.947673  	99.467745 
2290.384552  	99.457564 
2291.821430  	99.419926 
2293.258309  	99.377461 
2294.695188  	99.380900 
2296.132066  	99.322730 
2297.568945  	99.300720 
2299.005824  	99.120602 
2300.442702  	99.100492 
2301.879581  	99.029022 
2303.316460  	98.897657 
2304.753338  	98.770023 
2306.190217  	98.750979 
2307.627096  	98.591702 
2309.063974  	98.529201 
2310.500853  	98.491976 
2311.937731  	98.358455 
2313.374610  	98.424314 
2314.811489  	98.415905 
2316.248367  	98.336655 
2317.685246  	98.339957 
2319.122125  	98.106865 
2320.559003  	97.908370 
2321.995882  	97.796651 
2323.432761  	97.541758 
2324.869639  	97.484813 
2326.306518  	97.514117 
2327.743396  	97.542389 
2329.180275  	97.689261 
2330.617154  	97.706026 
2332.054032  	97.775751 
2333.490911  	97.955325 
2334.927790  	97.982411 
2336.364668  	98.068934 
2337.801547  	98.144367 
2339.238426  	98.142123 
2340.675304  	98.113590 
2342.112183  	97.886092 
2343.549062  	97.770843 
2344.985940  	97.676294 
2346.422819  	97.437718 
2347.859697  	97.492984 
2349.296576  	97.648436 
2350.733455  	97.838935 
2352.170333  	98.158573 
2353.607212  	98.290484 
2355.044091  	98.375058 
2356.480969  	98.513375 
2357.917848  	98.348578 
2359.354727  	98.249023 
2360.791605  	98.222196 
2362.228484  	98.121108 
2363.665362  	98.231823 
2365.102241  	98.210553 
2366.539120  	98.107181 
2367.975998  	98.157108 
2369.412877  	98.145457 
2370.849756  	98.262430 
2372.286634  	98.327962 
2373.723513  	98.215584 
2375.160392  	98.272745 
2376.597270  	98.313130 
2378.034149  	98.345590 
2379.471027  	98.513625 
2380.907906  	98.649431 
2382.344785  	98.883393 
2383.781663  	99.170284 
2385.218542  	99.355496 
2386.655421  	99.583614 
2388.092299  	99.684398 
2389.529178  	99.735565 
2390.966057  	99.870016 
2392.402935  	99.869022 
2393.839814  	99.865025 
2395.276693  	99.907976 
2396.713571  	99.854226 
2398.150450  	99.873662 
2399.587328  	99.875326 
2401.024207  	99.831548 
2402.461086  	99.884240 
2403.897964  	99.880644 
2405.334843  	99.904217 
2406.771722  	99.940291 
2408.208600  	99.840830 
2409.645479  	99.836539 
2411.082358  	99.865992 
2412.519236  	99.838772 
2413.956115  	99.863113 
2415.392993  	99.821992 
2416.829872  	99.829503 
2418.266751  	99.891100 
2419.703629  	99.857054 
2421.140508  	99.885685 
2422.577387  	99.867489 
2424.014265  	99.809346 
2425.451144  	99.870552 
2426.888023  	99.830485 
2428.324901  	99.824876 
2429.761780  	99.915855 
2431.198659  	99.859538 
2432.635537  	99.847654 
2434.072416  	99.855718 
2435.509294  	99.821125 
2436.946173  	99.877267 
2438.383052  	99.808099 
2439.819930  	99.748524 
2441.256809  	99.816014 
2442.693688  	99.757136 
2444.130566  	99.767210 
2445.567445  	99.840799 
2447.004324  	99.819443 
2448.441202  	99.856575 
2449.878081  	99.825746 
2451.314959  	99.785326 
2452.751838  	99.828533 
2454.188717  	99.766739 
2455.625595  	99.767051 
2457.062474  	99.799890 
2458.499353  	99.754710 
2459.936231  	99.807558 
2461.373110  	99.790608 
2462.809989  	99.752473 
2464.246867  	99.821091 
2465.683746  	99.754524 
2467.120625  	99.706696 
2468.557503  	99.725615 
2469.994382  	99.687312 
2471.431260  	99.765015 
2472.868139  	99.797323 
2474.305018  	99.757424 
2475.741896  	99.793625 
2477.178775  	99.731206 
2478.615654  	99.700116 
2480.052532  	99.708123 
2481.489411  	99.633785 
2482.926290  	99.694514 
2484.363168  	99.717997 
2485.800047  	99.643138 
2487.236925  	99.667571 
2488.673804  	99.624879 
2490.110683  	99.624992 
2491.547561  	99.683627 
2492.984440  	99.618047 
2494.421319  	99.643239 
2495.858197  	99.653138 
2497.295076  	99.599772 
2498.731955  	99.690159 
2500.168833  	99.681710 
2501.605712  	99.627624 
2503.042591  	99.659358 
2504.479469  	99.597155 
2505.916348  	99.586357 
2507.353226  	99.590804 
2508.790105  	99.558636 
2510.226984  	99.626468 
2511.663862  	99.589047 
2513.100741  	99.546583 
2514.537620  	99.592383 
2515.974498  	99.507315 
2517.411377  	99.498531 
2518.848256  	99.540261 
2520.285134  	99.492620 
2521.722013  	99.541585 
2523.158891  	99.530423 
2524.595770  	99.478150 
2526.032649  	99.503420 
2527.469527  	99.431282 
2528.906406  	99.413293 
2530.343285  	99.420977 
2531.780163  	99.355450 
2533.217042  	99.412643 
2534.653921  	99.404879 
2536.090799  	99.342974 
2537.527678  	99.380852 
2538.964557  	99.315240 
2540.401435  	99.298842 
2541.838314  	99.338187 
2543.275192  	99.273596 
2544.712071  	99.328578 
2546.148950  	99.365131 
2547.585828  	99.304286 
2549.022707  	99.319454 
2550.459586  	99.275306 
2551.896464  	99.288648 
2553.333343  	99.354862 
2554.770222  	99.272175 
2556.207100  	99.253812 
2557.643979  	99.249662 
2559.080857  	99.187752 
2560.517736  	99.231899 
2561.954615  	99.239110 
2563.391493  	99.240915 
2564.828372  	99.261395 
2566.265251  	99.186358 
2567.702129  	99.184083 
2569.139008  	99.167279 
2570.575887  	99.116981 
2572.012765  	99.196169 
2573.449644  	99.188284 
2574.886523  	99.157657 
2576.323401  	99.202114 
2577.760280  	99.140642 
2579.197158  	99.137070 
2580.634037  	99.156140 
2582.070916  	99.090146 
2583.507794  	99.116422 
2584.944673  	99.098431 
2586.381552  	99.050713 
2587.818430  	99.099625 
2589.255309  	99.072202 
2590.692188  	99.058942 
2592.129066  	99.096210 
2593.565945  	99.078911 
2595.002823  	99.101285 
2596.439702  	99.088381 
2597.876581  	99.055695 
2599.313459  	99.076373 
2600.750338  	99.037363 
2602.187217  	99.038627 
2603.624095  	99.064458 
2605.060974  	99.016590 
2606.497853  	99.023310 
2607.934731  	99.017826 
2609.371610  	98.998303 
2610.808489  	99.046072 
2612.245367  	99.037843 
2613.682246  	99.031894 
2615.119124  	99.043222 
2616.556003  	99.003186 
2617.992882  	99.018465 
2619.429760  	99.027557 
2620.866639  	99.008950 
2622.303518  	99.029977 
2623.740396  	99.028412 
2625.177275  	99.069008 
2626.614154  	99.091098 
2628.051032  	99.024584 
2629.487911  	99.045744 
2630.924789  	99.071380 
2632.361668  	99.030827 
2633.798547  	99.042747 
2635.235425  	99.038529 
2636.672304  	99.042423 
2638.109183  	99.070932 
2639.546061  	99.040832 
2640.982940  	99.037560 
2642.419819  	99.038109 
2643.856697  	99.025192 
2645.293576  	99.067408 
2646.730454  	99.061200 
2648.167333  	99.037832 
2649.604212  	99.060319 
2651.041090  	99.052410 
2652.477969  	99.070726 
2653.914848  	99.105283 
2655.351726  	99.105192 
2656.788605  	99.113500 
2658.225484  	99.097287 
2659.662362  	99.099720 
2661.099241  	99.136172 
2662.536120  	99.137201 
2663.972998  	99.163796 
2665.409877  	99.185376 
2666.846755  	99.175565 
2668.283634  	99.210780 
2669.720513  	99.213959 
2671.157391  	99.200572 
2672.594270  	99.226695 
2674.031149  	99.215858 
2675.468027  	99.220052 
2676.904906  	99.231942 
2678.341785  	99.207289 
2679.778663  	99.220747 
2681.215542  	99.212534 
2682.652420  	99.195764 
2684.089299  	99.232478 
2685.526178  	99.226849 
2686.963056  	99.224341 
2688.399935  	99.242255 
2689.836814  	99.207354 
2691.273692  	99.192593 
2692.710571  	99.184535 
2694.147450  	99.175536 
2695.584328  	99.202615 
2697.021207  	99.179487 
2698.458086  	99.153350 
2699.894964  	99.168478 
2701.331843  	99.163016 
2702.768721  	99.175208 
2704.205600  	99.171194 
2705.642479  	99.147758 
2707.079357  	99.167069 
2708.516236  	99.164350 
2709.953115  	99.163184 
2711.389993  	99.171784 
2712.826872  	99.134973 
2714.263751  	99.135100 
2715.700629  	99.149417 
2717.137508  	99.137169 
2718.574386  	99.143759 
2720.011265  	99.119200 
2721.448144  	99.106443 
2722.885022  	99.117064 
2724.321901  	99.076226 
2725.758780  	99.071122 
2727.195658  	99.091469 
2728.632537  	99.083311 
2730.069416  	99.097557 
2731.506294  	99.080154 
2732.943173  	99.059415 
2734.380052  	99.074675 
2735.816930  	99.051200 
2737.253809  	99.049116 
2738.690687  	99.076108 
2740.127566  	99.079739 
2741.564445  	99.085573 
2743.001323  	99.055976 
2744.438202  	99.040742 
2745.875081  	99.057778 
2747.311959  	99.022586 
2748.748838  	99.014033 
2750.185717  	99.019899 
2751.622595  	98.990910 
2753.059474  	99.022525 
2754.496352  	99.046647 
2755.933231  	99.026792 
2757.370110  	99.024685 
2758.806988  	98.998254 
2760.243867  	98.991038 
2761.680746  	98.996326 
2763.117624  	98.975076 
2764.554503  	99.001976 
2765.991382  	99.008604 
2767.428260  	98.981277 
2768.865139  	99.001872 
2770.302018  	99.002012 
2771.738896  	98.991615 
2773.175775  	98.988163 
2774.612653  	98.966814 
2776.049532  	98.984651 
2777.486411  	98.980999 
2778.923289  	98.951111 
2780.360168  	98.960189 
2781.797047  	98.941465 
2783.233925  	98.932728 
2784.670804  	98.938453 
2786.107683  	98.899320 
2787.544561  	98.890338 
2788.981440  	98.869688 
2790.418318  	98.840020 
2791.855197  	98.876152 
2793.292076  	98.855536 
2794.728954  	98.803690 
2796.165833  	98.808705 
2797.602712  	98.800577 
2799.039590  	98.801574 
2800.476469  	98.792313 
2801.913348  	98.756548 
2803.350226  	98.751123 
2804.787105  	98.720411 
2806.223984  	98.705367 
2807.660862  	98.722084 
2809.097741  	98.676308 
2810.534619  	98.641696 
2811.971498  	98.624771 
2813.408377  	98.589205 
2814.845255  	98.579006 
2816.282134  	98.533654 
2817.719013  	98.500925 
2819.155891  	98.504795 
2820.592770  	98.447940 
2822.029649  	98.417206 
2823.466527  	98.400372 
2824.903406  	98.344765 
2826.340284  	98.345680 
2827.777163  	98.314928 
2829.214042  	98.237807 
2830.650920  	98.198952 
2832.087799  	98.128996 
2833.524678  	98.078049 
2834.961556  	98.032451 
2836.398435  	97.908743 
2837.835314  	97.804609 
2839.272192  	97.684707 
2840.709071  	97.512507 
2842.145950  	97.340094 
2843.582828  	97.098933 
2845.019707  	96.807016 
2846.456585  	96.420352 
2847.893464  	95.911784 
2849.330343  	95.549584 
2850.767221  	95.431114 
2852.204100  	95.463144 
2853.640979  	95.575419 
2855.077857  	95.618189 
2856.514736  	95.613795 
2857.951615  	95.636809 
2859.388493  	95.630279 
2860.825372  	95.626695 
2862.262250  	95.607155 
2863.699129  	95.546537 
2865.136008  	95.476173 
2866.572886  	95.335819 
2868.009765  	95.183931 
2869.446644  	95.059457 
2870.883522  	94.909953 
2872.320401  	94.832451 
2873.757280  	94.807440 
2875.194158  	94.776635 
2876.631037  	94.805732 
2878.067916  	94.812084 
2879.504794  	94.776565 
2880.941673  	94.771016 
2882.378551  	94.751293 
2883.815430  	94.728514 
2885.252309  	94.692615 
2886.689187  	94.645737 
2888.126066  	94.632419 
2889.562945  	94.564873 
2890.999823  	94.495331 
2892.436702  	94.508984 
2893.873581  	94.492457 
2895.310459  	94.464891 
2896.747338  	94.460712 
2898.184216  	94.428305 
2899.621095  	94.396948 
2901.057974  	94.339136 
2902.494852  	94.273933 
2903.931731  	94.226077 
2905.368610  	94.121879 
2906.805488  	94.016923 
2908.242367  	93.908526 
2909.679246  	93.742995 
2911.116124  	93.578551 
2912.553003  	93.316777 
2913.989882  	92.914180 
2915.426760  	92.506027 
2916.863639  	92.163668 
2918.300517  	91.982263 
2919.737396  	91.932284 
2921.174275  	91.891943 
2922.611153  	91.887796 
2924.048032  	91.875039 
2925.484911  	91.828561 
2926.921789  	91.814026 
2928.358668  	91.786824 
2929.795547  	91.788263 
2931.232425  	91.852166 
2932.669304  	91.902757 
2934.106182  	91.974060 
2935.543061  	92.060203 
2936.979940  	92.142223 
2938.416818  	92.242786 
2939.853697  	92.281319 
2941.290576  	92.284828 
2942.727454  	92.299345 
2944.164333  	92.262801 
2945.601212  	92.200177 
2947.038090  	92.093862 
2948.474969  	91.953124 
2949.911847  	91.848359 
2951.348726  	91.690004 
2952.785605  	91.486738 
2954.222483  	91.334207 
2955.659362  	91.192180 
2957.096241  	91.062604 
2958.533119  	90.947073 
2959.969998  	90.843903 
2961.406877  	90.812683 
2962.843755  	90.838530 
2964.280634  	90.920031 
2965.717513  	91.057282 
2967.154391  	91.218293 
2968.591270  	91.441769 
2970.028148  	91.704119 
2971.465027  	91.986256 
2972.901906  	92.311372 
2974.338784  	92.619942 
2975.775663  	92.957208 
2977.212542  	93.321765 
2978.649420  	93.589503 
2980.086299  	93.831212 
2981.523178  	94.085080 
2982.960056  	94.343324 
2984.396935  	94.669175 
2985.833813  	94.925700 
2987.270692  	95.094287 
2988.707571  	95.306566 
2990.144449  	95.491110 
2991.581328  	95.656597 
2993.018207  	95.820819 
2994.455085  	95.931357 
2995.891964  	96.074242 
2997.328843  	96.218162 
2998.765721  	96.315853 
3000.202600  	96.410028 
3001.639479  	96.467358 
3003.076357  	96.549195 
3004.513236  	96.642699 
3005.950114  	96.695998 
3007.386993  	96.819252 
3008.823872  	96.937063 
3010.260750  	97.003888 
3011.697629  	97.097652 
3013.134508  	97.120345 
3014.571386  	97.146493 
3016.008265  	97.242292 
3017.445144  	97.281293 
3018.882022  	97.324905 
3020.318901  	97.346143 
3021.755779  	97.293550 
3023.192658  	97.276767 
3024.629537  	97.232492 
3026.066415  	97.173818 
3027.503294  	97.155602 
3028.940173  	97.082978 
3030.377051  	97.012209 
3031.813930  	96.939064 
3033.250809  	96.842214 
3034.687687  	96.821173 
3036.124566  	96.787400 
3037.561445  	96.748897 
3038.998323  	96.772571 
3040.435202  	96.767543 
3041.872080  	96.800960 
3043.308959  	96.864741 
3044.745838  	96.891078 
3046.182716  	96.967124 
3047.619595  	97.010363 
3049.056474  	97.017048 
3050.493352  	97.074439 
3051.930231  	97.080163 
3053.367110  	97.073734 
3054.803988  	97.059733 
3056.240867  	96.980037 
3057.677745  	96.952439 
3059.114624  	96.925177 
3060.551503  	96.885042 
3061.988381  	96.898471 
3063.425260  	96.839561 
3064.862139  	96.779172 
3066.299017  	96.771479 
3067.735896  	96.714476 
3069.172775  	96.708280 
3070.609653  	96.714665 
3072.046532  	96.679258 
3073.483411  	96.702333 
3074.920289  	96.713058 
3076.357168  	96.738582 
3077.794046  	96.804865 
3079.230925  	96.799458 
3080.667804  	96.810509 
3082.104682  	96.851049 
3083.541561  	96.891834 
3084.978440  	96.978143 
3086.415318  	97.001616 
3087.852197  	97.038944 
3089.289076  	97.138140 
3090.725954  	97.128408 
3092.162833  	97.122395 
3093.599711  	97.170680 
3095.036590  	97.160423 
3096.473469  	97.140887 
3097.910347  	97.095204 
3099.347226  	97.077155 
3100.784105  	97.106975 
3102.220983  	97.053380 
3103.657862  	97.028595 
3105.094741  	97.041921 
3106.531619  	96.986146 
3107.968498  	96.966065 
3109.405377  	96.953726 
3110.842255  	96.954390 
3112.279134  	97.018219 
3113.716012  	97.015313 
3115.152891  	97.010725 
3116.589770  	97.024808 
3118.026648  	96.977979 
3119.463527  	97.008083 
3120.900406  	97.048240 
3122.337284  	97.008568 
3123.774163  	97.003939 
3125.211042  	96.996318 
3126.647920  	96.993352 
3128.084799  	97.009095 
3129.521677  	96.982244 
3130.958556  	96.969461 
3132.395435  	96.926846 
3133.832313  	96.883963 
3135.269192  	96.934056 
3136.706071  	96.933067 
3138.142949  	96.888089 
3139.579828  	96.871008 
3141.016707  	96.830139 
3142.453585  	96.818586 
3143.890464  	96.794953 
3145.327343  	96.748551 
3146.764221  	96.739716 
3148.201100  	96.681758 
3149.637978  	96.654077 
3151.074857  	96.678538 
3152.511736  	96.615424 
3153.948614  	96.566947 
3155.385493  	96.551657 
3156.822372  	96.522771 
3158.259250  	96.524305 
3159.696129  	96.454886 
3161.133008  	96.381374 
3162.569886  	96.385117 
3164.006765  	96.352207 
3165.443643  	96.344791 
3166.880522  	96.346238 
3168.317401  	96.290572 
3169.754279  	96.258055 
3171.191158  	96.187037 
3172.628037  	96.133944 
3174.064915  	96.161899 
3175.501794  	96.110495 
3176.938673  	96.022413 
3178.375551  	95.954413 
3179.812430  	95.904032 
3181.249309  	95.935803 
3182.686187  	95.912640 
3184.123066  	95.835258 
3185.559944  	95.815579 
3186.996823  	95.764778 
3188.433702  	95.736134 
3189.870580  	95.722851 
3191.307459  	95.646825 
3192.744338  	95.640595 
3194.181216  	95.643745 
3195.618095  	95.583137 
3197.054974  	95.552129 
3198.491852  	95.487435 
3199.928731  	95.412757 
3201.365609  	95.389791 
3202.802488  	95.367031 
3204.239367  	95.355192 
3205.676245  	95.318332 
3207.113124  	95.278808 
3208.550003  	95.260476 
3209.986881  	95.182018 
3211.423760  	95.131167 
3212.860639  	95.112635 
3214.297517  	95.048810 
3215.734396  	95.027164 
3217.171274  	95.006535 
3218.608153  	94.975923 
3220.045032  	94.967703 
3221.481910  	94.891938 
3222.918789  	94.843006 
3224.355668  	94.821384 
3225.792546  	94.745706 
3227.229425  	94.730131 
3228.666304  	94.694458 
3230.103182  	94.619041 
3231.540061  	94.613271 
3232.976940  	94.560776 
3234.413818  	94.521547 
3235.850697  	94.521784 
3237.287575  	94.442228 
3238.724454  	94.422888 
3240.161333  	94.410648 
3241.598211  	94.319203 
3243.035090  	94.295639 
3244.471969  	94.247050 
3245.908847  	94.175026 
3247.345726  	94.166447 
3248.782605  	94.109064 
3250.219483  	94.077629 
3251.656362  	94.065121 
3253.093240  	93.979336 
3254.530119  	93.929040 
3255.966998  	93.892181 
3257.403876  	93.870581 
3258.840755  	93.860218 
3260.277634  	93.740569 
3261.714512  	93.654086 
3263.151391  	93.636524 
3264.588270  	93.583018 
3266.025148  	93.575065 
3267.462027  	93.551033 
3268.898906  	93.509884 
3270.335784  	93.507481 
3271.772663  	93.415878 
3273.209541  	93.337561 
3274.646420  	93.331101 
3276.083299  	93.283748 
3277.520177  	93.282548 
3278.957056  	93.289874 
3280.393935  	93.251972 
3281.830813  	93.216067 
3283.267692  	93.122592 
3284.704571  	93.085252 
3286.141449  	93.117913 
3287.578328  	93.070628 
3289.015206  	93.042215 
3290.452085  	93.029113 
3291.888964  	92.977742 
3293.325842  	92.950372 
3294.762721  	92.893526 
3296.199600  	92.878700 
3297.636478  	92.894147 
3299.073357  	92.814148 
3300.510236  	92.795812 
3301.947114  	92.818195 
3303.383993  	92.756788 
3304.820872  	92.735389 
3306.257750  	92.735772 
3307.694629  	92.703212 
3309.131507  	92.642528 
3310.568386  	92.569571 
3312.005265  	92.589882 
3313.442143  	92.572058 
3314.879022  	92.473596 
3316.315901  	92.493585 
3317.752779  	92.506480 
3319.189658  	92.450060 
3320.626537  	92.439852 
3322.063415  	92.386129 
3323.500294  	92.320421 
3324.937172  	92.289239 
3326.374051  	92.225622 
3327.810930  	92.171096 
3329.247808  	92.127989 
3330.684687  	92.120604 
3332.121566  	92.117668 
3333.558444  	92.033471 
3334.995323  	91.984675 
3336.432202  	91.933269 
3337.869080  	91.840609 
3339.305959  	91.888900 
3340.742838  	91.941055 
3342.179716  	91.887214 
3343.616595  	91.856331 
3345.053473  	91.813385 
3346.490352  	91.811583 
3347.927231  	91.852803 
3349.364109  	91.801634 
3350.800988  	91.763773 
3352.237867  	91.772956 
3353.674745  	91.751925 
3355.111624  	91.714737 
3356.548503  	91.652642 
3357.985381  	91.648390 
3359.422260  	91.690309 
3360.859138  	91.682940 
3362.296017  	91.675959 
3363.732896  	91.626285 
3365.169774  	91.575015 
3366.606653  	91.605937 
3368.043532  	91.587530 
3369.480410  	91.587854 
3370.917289  	91.650588 
3372.354168  	91.635232 
3373.791046  	91.625850 
3375.227925  	91.633091 
3376.664804  	91.626521 
3378.101682  	91.654799 
3379.538561  	91.613301 
3380.975439  	91.595737 
3382.412318  	91.642260 
3383.849197  	91.567621 
3385.286075  	91.516158 
3386.722954  	91.536175 
3388.159833  	91.512989 
3389.596711  	91.563738 
3391.033590  	91.572772 
3392.470469  	91.456489 
3393.907347  	91.431744 
3395.344226  	91.479734 
3396.781104  	91.488567 
3398.217983  	91.460520 
3399.654862  	91.458275 
3401.091740  	91.521065 
3402.528619  	91.505979 
3403.965498  	91.435685 
3405.402376  	91.420704 
3406.839255  	91.397123 
3408.276134  	91.447409 
3409.713012  	91.517560 
3411.149891  	91.440516 
3412.586770  	91.382901 
3414.023648  	91.381311 
3415.460527  	91.351348 
3416.897405  	91.352870 
3418.334284  	91.309890 
3419.771163  	91.212367 
3421.208041  	91.143768 
3422.644920  	91.109855 
3424.081799  	91.167592 
3425.518677  	91.251061 
3426.955556  	91.263257 
3428.392435  	91.262713 
3429.829313  	91.275573 
3431.266192  	91.311865 
3432.703070  	91.333690 
3434.139949  	91.341258 
3435.576828  	91.399701 
3437.013706  	91.381188 
3438.450585  	91.334258 
3439.887464  	91.406533 
3441.324342  	91.372124 
3442.761221  	91.249287 
3444.198100  	91.297558 
3445.634978  	91.361076 
3447.071857  	91.285585 
3448.508736  	91.206867 
3449.945614  	91.283849 
3451.382493  	91.429858 
3452.819371  	91.450974 
3454.256250  	91.432285 
3455.693129  	91.473037 
3457.130007  	91.472150 
3458.566886  	91.514189 
3460.003765  	91.591399 
3461.440643  	91.559408 
3462.877522  	91.531493 
3464.314401  	91.597937 
3465.751279  	91.699085 
3467.188158  	91.773691 
3468.625036  	91.778699 
3470.061915  	91.765790 
3471.498794  	91.747649 
3472.935672  	91.749786 
3474.372551  	91.773985 
3475.809430  	91.732457 
3477.246308  	91.763364 
3478.683187  	91.885825 
3480.120066  	91.868232 
3481.556944  	91.779881 
3482.993823  	91.764290 
3484.430701  	91.837345 
3485.867580  	91.974293 
3487.304459  	91.988322 
3488.741337  	91.930175 
3490.178216  	91.985578 
3491.615095  	92.037569 
3493.051973  	92.075413 
3494.488852  	92.090419 
3495.925731  	92.036037 
3497.362609  	92.084240 
3498.799488  	92.169169 
3500.236367  	92.150571 
3501.673245  	92.064780 
3503.110124  	91.852521 
3504.547002  	91.775150 
3505.983881  	92.083170 
3507.420760  	92.362542 
3508.857638  	92.304659 
3510.294517  	92.098326 
3511.731396  	92.130170 
3513.168274  	92.352009 
3514.605153  	92.516622 
3516.042032  	92.628085 
3517.478910  	92.622762 
3518.915789  	92.545174 
3520.352667  	92.713278 
3521.789546  	92.831812 
3523.226425  	92.559930 
3524.663303  	92.370607 
3526.100182  	92.481411 
3527.537061  	92.613243 
3528.973939  	92.730756 
3530.410818  	92.811196 
3531.847697  	92.951029 
3533.284575  	93.210389 
3534.721454  	93.348260 
3536.158333  	93.294431 
3537.595211  	93.298672 
3539.032090  	93.534534 
3540.468968  	93.783410 
3541.905847  	93.842474 
3543.342726  	93.853255 
3544.779604  	93.802138 
3546.216483  	93.580908 
3547.653362  	93.519610 
3549.090240  	93.786970 
3550.527119  	94.151432 
3551.963998  	94.310988 
3553.400876  	94.140335 
3554.837755  	94.173609 
3556.274633  	94.501567 
3557.711512  	94.716853 
3559.148391  	94.776526 
3560.585269  	94.796609 
3562.022148  	94.880074 
3563.459027  	95.047379 
3564.895905  	95.066347 
3566.332784  	94.754995 
3567.769663  	94.119008 
3569.206541  	94.048608 
3570.643420  	94.673614 
3572.080299  	95.276625 
3573.517177  	95.496584 
3574.954056  	95.526084 
3576.390934  	95.602902 
3577.827813  	95.758567 
3579.264692  	95.862184 
3580.701570  	95.845674 
3582.138449  	95.858843 
3583.575328  	95.968414 
3585.012206  	96.192336 
3586.449085  	96.303252 
3587.885964  	95.765794 
3589.322842  	95.339722 
3590.759721  	95.705471 
3592.196599  	96.174448 
3593.633478  	96.335008 
3595.070357  	96.052258 
3596.507235  	95.899272 
3597.944114  	96.170141 
3599.380993  	96.354427 
3600.817871  	96.309218 
3602.254750  	96.181209 
3603.691629  	96.219505 
3605.128507  	96.646493 
3606.565386  	97.018495 
3608.002265  	96.693562 
3609.439143  	96.152342 
3610.876022  	96.142401 
3612.312900  	96.430483 
3613.749779  	96.330245 
3615.186658  	95.665480 
3616.623536  	95.343782 
3618.060415  	95.112410 
3619.497294  	94.288349 
3620.934172  	94.046978 
3622.371051  	94.938521 
3623.807930  	95.782333 
3625.244808  	96.292342 
3626.681687  	96.797232 
3628.118565  	97.313756 
3629.555444  	96.660588 
3630.992323  	95.905429 
3632.429201  	96.303570 
3633.866080  	96.652618 
3635.302959  	96.607489 
3636.739837  	96.631001 
3638.176716  	96.795031 
3639.613595  	96.965521 
3641.050473  	96.933245 
3642.487352  	96.707309 
3643.924231  	96.741292 
3645.361109  	96.961397 
3646.797988  	97.063079 
3648.234866  	96.925651 
3649.671745  	96.212770 
3651.108624  	94.922189 
3652.545502  	94.848441 
3653.982381  	95.660617 
3655.419260  	96.396400 
3656.856138  	96.339210 
3658.293017  	96.040648 
3659.729896  	96.476492 
3661.166774  	96.895099 
3662.603653  	96.950158 
3664.040531  	96.962734 
3665.477410  	96.891980 
3666.914289  	97.208983 
3668.351167  	97.978160 
3669.788046  	97.771578 
3671.224925  	96.129901 
3672.661803  	96.220886 
3674.098682  	97.357200 
3675.535561  	97.809399 
3676.972439  	95.538405 
3678.409318  	95.220056 
3679.846197  	95.882325 
3681.283075  	96.164791 
3682.719954  	95.985317 
3684.156832  	95.762661 
3685.593711  	95.583589 
3687.030590  	95.664277 
3688.467468  	95.532316 
3689.904347  	94.288728 
3691.341226  	92.872576 
3692.778104  	92.290766 
3694.214983  	92.562784 
3695.651862  	92.837382 
3697.088740  	93.055167 
3698.525619  	93.705550 
3699.962497  	94.329751 
3701.399376  	94.945459 
3702.836255  	95.418332 
3704.273133  	95.896354 
3705.710012  	97.135018 
3707.146891  	97.954817 
3708.583769  	98.385479 
3710.020648  	98.608998 
3711.457527  	98.466829 
3712.894405  	97.931776 
3714.331284  	97.829521 
3715.768163  	98.230181 
3717.205041  	98.647582 
3718.641920  	98.802869 
3720.078798  	99.025980 
3721.515677  	99.291768 
3722.952556  	99.064741 
3724.389434  	98.821514 
3725.826313  	98.707504 
3727.263192  	98.521683 
3728.700070  	98.981405 
3730.136949  	99.700785 
3731.573828  	100.111977 
3733.010706  	99.807347 
3734.447585  	98.877913 
3735.884463  	98.296663 
3737.321342  	98.547827 
3738.758221  	98.695693 
3740.195099  	98.734148 
3741.631978  	99.184152 
3743.068857  	100.157473 
3744.505735  	100.912039 
3745.942614  	99.170857 
3747.379493  	98.682784 
3748.816371  	99.304842 
3750.253250  	99.552687 
3751.690129  	98.690436 
3753.127007  	98.425335 
3754.563886  	98.862764 
3756.000764  	99.263900 
3757.437643  	99.525213 
3758.874522  	99.432324 
3760.311400  	99.165463 
3761.748279  	99.256712 
3763.185158  	99.754805 
3764.622036  	100.009813 
3766.058915  	99.487791 
3767.495794  	99.280999 
3768.932672  	99.765646 
3770.369551  	99.884227 
3771.806429  	99.420836 
3773.243308  	99.360491 
3774.680187  	99.675641 
3776.117065  	99.957947 
3777.553944  	100.151963 
3778.990823  	100.282870 
3780.427701  	99.906429 
3781.864580  	99.575723 
3783.301459  	99.824857 
3784.738337  	99.988601 
3786.175216  	99.739234 
3787.612094  	99.710229 
3789.048973  	99.946405 
3790.485852  	100.106575 
3791.922730  	100.022420 
3793.359609  	100.112652 
3794.796488  	100.706298 
3796.233366  	100.798475 
3797.670245  	99.833897 
3799.107124  	99.981610 
3800.544002  	101.092472 
3801.980881  	100.651525 
3803.417760  	98.885666 
3804.854638  	99.403090 
3806.291517  	100.436201 
3807.728395  	100.071379 
3809.165274  	99.387419 
3810.602153  	99.701861 
3812.039031  	100.018944 
3813.475910  	100.365165 
3814.912789  	101.024077 
3816.349667  	100.750379 
3817.786546  	99.608147 
3819.223425  	100.025919 
3820.660303  	100.818086 
3822.097182  	99.377519 
3823.534060  	98.529802 
3824.970939  	99.543732 
3826.407818  	100.233549 
3827.844696  	99.633998 
3829.281575  	99.557050 
3830.718454  	100.163823 
3832.155332  	100.459547 
3833.592211  	100.349955 
3835.029090  	100.222943 
3836.465968  	100.293497 
3837.902847  	100.252552 
3839.339726  	99.477961 
3840.776604  	99.120905 
3842.213483  	99.330697 
3843.650361  	99.185958 
3845.087240  	99.133761 
3846.524119  	99.547327 
3847.960997  	99.957278 
3849.397876  	100.270231 
3850.834755  	100.555376 
3852.271633  	100.901545 
3853.708512  	100.398327 
3855.145391  	98.882609 
3856.582269  	98.754881 
3858.019148  	99.144139 
3859.456026  	99.510997 
3860.892905  	99.651209 
3862.329784  	99.907561 
3863.766662  	100.173432 
3865.203541  	99.579932 
3866.640420  	99.059489 
3868.077298  	99.647091 
3869.514177  	99.985395 
3870.951056  	99.161758 
3872.387934  	99.229204 
3873.824813  	99.714360 
3875.261692  	99.456584 
3876.698570  	99.073440 
3878.135449  	99.678234 
3879.572327  	100.558912 
3881.009206  	99.800199 
3882.446085  	98.896336 
3883.882963  	99.652864 
3885.319842  	100.139531 
3886.756721  	99.333954 
3888.193599  	99.270486 
3889.630478  	99.931855 
3891.067357  	100.311205 
3892.504235  	99.518566 
3893.941114  	98.967360 
3895.377992  	99.453859 
3896.814871  	100.016703 
3898.251750  	100.130310 
3899.688628  	99.864197 
3901.125507  	99.416726 
3902.562386  	99.416919 
3903.999264  	99.532941 
3905.436143  	98.958388 
3906.873022  	98.640425 
3908.309900  	99.152455 
3909.746779  	99.825517 
3911.183658  	99.993241 
3912.620536  	99.850018 
3914.057415  	99.853008 
3915.494293  	99.898365 
3916.931172  	99.835412 
3918.368051  	99.791613 
3919.804929  	99.726687 
3921.241808  	99.711984 
3922.678687  	99.831210 
3924.115565  	99.781323 
3925.552444  	99.598415 
3926.989323  	99.625554 
3928.426201  	99.792712 
3929.863080  	99.911512 
3931.299958  	99.745212 
3932.736837  	99.409039 
3934.173716  	99.452454 
3935.610594  	99.782865 
3937.047473  	99.927733 
3938.484352  	99.803718 
3939.921230  	99.788357 
3941.358109  	99.950746 
3942.794988  	99.836072 
3944.231866  	99.576313 
3945.668745  	99.646846 
3947.105624  	99.717458 
3948.542502  	99.586481 
3949.979381  	99.526748 
3951.416259  	99.638294 
3952.853138  	99.788792 
3954.290017  	99.845231 
3955.726895  	99.825746 
3957.163774  	99.815471 
3958.600653  	99.815610 
3960.037531  	99.850270 
3961.474410  	99.785991 
3962.911289  	99.623790 
3964.348167  	99.671772 
3965.785046  	99.878713 
3967.221924  	99.994567 
3968.658803  	99.981227 
3970.095682  	99.871203 
3971.532560  	99.845899 
3972.969439  	99.901513 
3974.406318  	99.825342 
3975.843196  	99.714664 
3977.280075  	99.706833 
3978.716954  	99.807039 
3980.153832  	99.935831 
3981.590711  	99.941309 
3983.027590  	99.942893 
3984.464468  	99.981552 
3985.901347  	99.963011 
3987.338225  	100.028950 
3988.775104  	100.035463 
3990.211983  	99.867468 
3991.648861  	99.842702 
3993.085740  	99.922250 
3994.522619  	99.916772 
3995.959497  	99.906982 
3997.396376  	99.923382 
3998.833255  	99.994866 
4000.270133  	100.054502 